"1010337604","1517682878","0",\N
"1010337604","1523669706","0",\N
"1010337604","176092481","0",\N
"1010337604","2104241162","0",\N
"1010337604","2200154620","0",\N
"1480461337","1004695024","0",\N
"1480461337","1484813121","0",\N
"1480461337","1523467562","1",\N
"1480461337","1533498323","0",\N
"1480461337","1551465988","0",\N
"1480461337","1560473542","0",\N
"1480461337","1591950876","0",\N
"1480461337","1793459678","0",\N
"1480461337","1841651249","0",\N
"1480461337","1887160493","0",\N
"1480461337","1917618233","0",\N
"1480461337","1952447191","0",\N
"1480461337","2043934800","0",\N
"1480461337","2144839430","0",\N
"1480461337","2145293491","0",\N
"1480461337","2149323114","0",\N
"1480461337","2246078609","0",\N
"1480461337","2249002022","0",\N
"1480461337","2249321038","0",\N
"1480461337","2264399208","0",\N
"1480461337","2269356136","0",\N
"1480461337","2287616914","0",\N
"1480461337","2287763796","0",\N
"1480461337","312022651","0",\N
"1492920349","1490317824","0",\N
"1492920349","1538074834","0",\N
"1492920349","1604864321","0",\N
"1492920349","1605699237","0",\N
"1492920349","1760240308","1",\N
"1492920349","1779363399","0",\N
"1492920349","1856960968","0",\N
"1492920349","1927350064","0",\N
"1492920349","1966733122","0",\N
"1492920349","1981909127","0",\N
"1492920349","2072737419","0",\N
"1492920349","2120939696","0",\N
"1492920349","2126010424","0",\N
"1492920349","2133718097","0",\N
"1492920349","2394777452","1",\N
"1492920349","2413616768","0",\N
"1492920349","979259679","0",\N
"1499807075","2041563709","1",\N
"1512955609","120802049","0",\N
"1512955609","1515932031","0",\N
"1512955609","1536603646","1",\N
"1512955609","1546474256","0",\N
"1512955609","1551438051","0",\N
"1512955609","1556344493","0",\N
"1512955609","1561055565","0",\N
"1512955609","1568349357","0",\N
"1512955609","1590198000","0",\N
"1512955609","1612155886","0",\N
"1512955609","17071393","1",\N
"1512955609","1781748254","0",\N
"1512955609","179108129","1",\N
"1512955609","1839867872","0",\N
"1512955609","1977583107","0",\N
"1512955609","1979966822","0",\N
"1512955609","1983661866","0",\N
"1512955609","2005639687","0",\N
"1512955609","2033626294","0",\N
"1512955609","2037600449","0",\N
"1512955609","2038281398","0",\N
"1512955609","2054658115","0",\N
"1512955609","2058978608","0",\N
"1512955609","2072764742","0",\N
"1512955609","2075476359","0",\N
"1512955609","2077053297","0",\N
"1512955609","2091009885","0",\N
"1512955609","2099111195","0",\N
"1512955609","2116493296","0",\N
"1512955609","2128350269","0",\N
"1512955609","2129281431","0",\N
"1512955609","2139393115","0",\N
"1512955609","2140327372","0",\N
"1512955609","2143455443","0",\N
"1512955609","2150974577","0",\N
"1512955609","2155960838","1",\N
"1512955609","2168605051","0",\N
"1512955609","2171588311","0",\N
"1512955609","2296677182","1",\N
"1515739837","106164280","0",\N
"1515739837","1480809079","0",\N
"1515739837","1493098199","1",\N
"1515739837","1565651085","0",\N
"1515739837","1920644729","0",\N
"1515739837","1975731516","0",\N
"1515739837","1977570286","0",\N
"1515739837","1991782662","0",\N
"1515739837","1994502095","0",\N
"1515739837","2041563709","1",\N
"1515739837","2044564105","1",\N
"1515739837","2065840988","0",\N
"1515739837","2068901259","0",\N
"1515739837","2098082683","0",\N
"1515739837","2102166438","1",\N
"1515739837","2109118818","0",\N
"1515739837","2120754641","0",\N
"1515739837","2134876510","0",\N
"1515739837","2143452574","0",\N
"1515739837","2152686036","0",\N
"1515739837","2153329411","0",\N
"1515739837","2168410847","0",\N
"1515739837","2171147420","1",\N
"1515739837","2203361072","0",\N
"1515739837","25483517","0",\N
"1538818174","1491163213","0",\N
"1538818174","1508995290","0",\N
"1538818174","1512862401","0",\N
"1538818174","1538884899","0",\N
"1538818174","157210873","0",\N
"1538818174","1596612710","0",\N
"1538818174","1833502664","0",\N
"1538818174","1943557536","0",\N
"1538818174","1975731516","0",\N
"1538818174","2004145258","0",\N
"1538818174","2015175744","0",\N
"1538818174","2041563709","1",\N
"1538818174","2085546155","0",\N
"1538818174","2143012954","0",\N
"1538818174","2399731986","0",\N
"1571912949","1031399575","0",\N
"1571912949","1538125896","0",\N
"1571912949","1539637933","0",\N
"1571912949","1810910732","0",\N
"1571912949","2115391695","0",\N
"1571912949","2198798532","0",\N
"1571912949","2203595453","0",\N
"1571912949","2264559911","0",\N
"1571912949","2336382009","0",\N
"1571912949","257247952","0",\N
"1571912949","972195914","0",\N
"1578495525","1501042780","0",\N
"1578495525","1549426500","0",\N
"1578495525","1587949923","0",\N
"1578495525","1590198000","0",\N
"1578495525","1592742957","0",\N
"1578495525","1604793072","0",\N
"1578495525","1645304410","0",\N
"1578495525","1997020216","0",\N
"1578495525","2000637380","0",\N
"1578495525","2008750849","0",\N
"1578495525","2029036662","0",\N
"1578495525","2080427212","0",\N
"1578495525","2126583885","0",\N
"1578495525","2132846504","0",\N
"1578495525","2146368765","0",\N
"1578495525","2150206209","0",\N
"1578495525","2151826520","0",\N
"1578495525","2162747054","0",\N
"1578495525","2170357877","0",\N
"1578495525","2171922437","0",\N
"1578495525","2203361072","0",\N
"1578663810","1485629365","0",\N
"1578663810","1543657273","0",\N
"1578663810","1562582274","0",\N
"1578663810","1899956758","0",\N
"1578663810","1978665131","0",\N
"1578663810","2084757499","0",\N
"1578663810","2152580645","0",\N
"1578663810","2157979971","0",\N
"1578663810","2167911783","0",\N
"1578663810","2169594022","0",\N
"1578918886","1513706771","0",\N
"1578918886","1561911801","0",\N
"1578918886","1579776950","0",\N
"1578918886","1580843128","0",\N
"1578918886","2072764742","0",\N
"1578918886","2093490165","0",\N
"1578918886","2100099053","0",\N
"1578918886","2129835472","0",\N
"1578918886","2209814480","0",\N
"1578918886","2224764360","0",\N
"1578918886","2395075661","0",\N
"1584770030","1601629924","1",\N
"1584770030","1791587242","0",\N
"1584770030","1967601791","1",\N
"1584770030","2014977566","0",\N
"1584770030","2043934800","0",\N
"1584770030","2100542992","1",\N
"1584770030","2104003087","0",\N
"1584770030","2160149182","1",\N
"1584770030","2182331413","1",\N
"1584770030","2292693431","1",\N
"1584770030","2396727930","0",\N
"1584770030","2397360326","0",\N
"1595441669","2029036662","0",\N
"1595441669","2151037077","1",\N
"1658167903","2766000922","0",\N
"1684311429","1484739396","0",\N
"1684311429","1497748148","0",\N
"1684311429","150801922","0",\N
"1684311429","1527643973","0",\N
"1684311429","1536603646","1",\N
"1684311429","1540926161","0",\N
"1684311429","1566251565","0",\N
"1684311429","1964374591","0",\N
"1684311429","1970587873","0",\N
"1684311429","1975731516","0",\N
"1684311429","1987645871","0",\N
"1684311429","1994502095","0",\N
"1684311429","2020147322","1",\N
"1684311429","2026772575","0",\N
"1684311429","2038281398","0",\N
"1684311429","2072001200","0",\N
"1684311429","2082693041","0",\N
"1684311429","2091936226","0",\N
"1684311429","2109149785","0",\N
"1684311429","2109706789","0",\N
"1684311429","2111087562","0",\N
"1684311429","2118984514","0",\N
"1684311429","2120754641","1",\N
"1684311429","2133338501","0",\N
"1684311429","2133384222","0",\N
"1684311429","2138793904","0",\N
"1684311429","2145943173","0",\N
"1684311429","2147232895","1",\N
"1684311429","2153329411","0",\N
"1684311429","2153834102","0",\N
"1684311429","2163192219","0",\N
"1684311429","2164433331","0",\N
"1684311429","2168410847","0",\N
"1684311429","2171438172","0",\N
"1684311429","2201552871","0",\N
"1684311429","2203361072","1",\N
"1684311429","2296677182","1",\N
"1684311429","2314831322","0",\N
"1684311429","46131467","0",\N
"1684311429","91877480","0",\N
"182726565","2029036662","0",\N
"1890220130","1484420901","1",\N
"1890220130","1791587242","0",\N
"1890220130","2018745370","1",\N
"1890220130","2038509324","0",\N
"1890220130","2039910065","0",\N
"1890220130","2096496252","0",\N
"1890220130","2100542992","1",\N
"1890220130","2102729946","0",\N
"1890220130","2103216163","1",\N
"1890220130","2114474644","1",\N
"1890220130","2123854425","1",\N
"1890220130","2124851765","0",\N
"1890220130","2130642985","0",\N
"1890220130","2131645490","0",\N
"1890220130","2143125604","1",\N
"1890220130","2187014882","0",\N
"1905015708","1012906699","0",\N
"1905015708","1523659081","0",\N
"1905015708","1574795604","0",\N
"1905015708","1576987773","0",\N
"1905015708","1767678477","0",\N
"1905015708","1786965682","0",\N
"1905015708","1797010116","0",\N
"1905015708","1807072111","0",\N
"1905015708","1824087102","0",\N
"1905015708","1837405133","0",\N
"1905015708","1871722334","0",\N
"1905015708","1925615121","0",\N
"1905015708","1925847901","0",\N
"1905015708","2123315633","0",\N
"1905015708","2133300302","0",\N
"1905015708","2144839430","0",\N
"1905015708","2208983956","0",\N
"1905015708","2210077059","0",\N
"1905015708","2223770714","0",\N
"1905015708","2249287238","0",\N
"1905015708","2260053648","0",\N
"1905015708","2269995167","0",\N
"1905015708","2278064521","0",\N
"1905015708","92595598","0",\N
"1905015708","976624910","0",\N
"1967601791","1791587242","0",\N
"1967601791","1890220130","1",\N
"1967601791","1987238352","0",\N
"1967601791","2003515726","0",\N
"1967601791","2020463726","0",\N
"1967601791","2043934800","0",\N
"1967601791","2046269252","1",\N
"1967601791","2096496252","0",\N
"1967601791","2100542992","1",\N
"1967601791","2102987499","0",\N
"1967601791","2104954161","0",\N
"1967601791","2113831242","1",\N
"1967601791","2114474644","1",\N
"1967601791","2130642985","0",\N
"1967601791","2143125604","1",\N
"1967601791","2144839430","0",\N
"1967601791","2153329411","0",\N
"1967601791","2157979971","0",\N
"1967601791","2188889839","1",\N
"1967601791","2396727930","0",\N
"1967601791","2996860338","0",\N
"1967601791","30948595","0",\N
"1969837095","1553825122","0",\N
"1969837095","172857819","0",\N
"1969837095","1819493133","0",\N
"1969837095","2029036662","1",\N
"1969837095","2031900922","1",\N
"1969837095","2033801104","0",\N
"1969837095","2077515046","0",\N
"1969837095","2096495424","0",\N
"1969837095","2184315054","0",\N
"1975677592","1974101162","0",\N
"1975677592","1982558719","1",\N
"1975677592","2077560085","0",\N
"1975677592","2105193570","0",\N
"1975677592","2112101330","0",\N
"1975677592","2133718097","0",\N
"1975677592","2145056667","0",\N
"1975677592","2169593628","0",\N
"1982558719","1526124194","0",\N
"1982558719","1561988317","0",\N
"1982558719","1584687013","0",\N
"1982558719","1791587242","0",\N
"1982558719","2007069074","0",\N
"1982558719","2026463897","0",\N
"1982558719","2053550438","0",\N
"1982558719","2061884758","0",\N
"1982558719","2063039343","0",\N
"1982558719","2101207848","0",\N
"1982558719","2102166438","0",\N
"1982558719","2105170773","0",\N
"1982558719","2111967617","0",\N
"1982558719","2203361072","0",\N
"2005142245","2766000922","0",\N
"2018745370","129807151","0",\N
"2018745370","1600355623","0",\N
"2018745370","1791587242","0",\N
"2018745370","1976232673","0",\N
"2018745370","1978665131","0",\N
"2018745370","2060108852","0",\N
"2018745370","2065954102","0",\N
"2018745370","2099111195","0",\N
"2018745370","2108392934","0",\N
"2018745370","2130642985","0",\N
"2018745370","2137012911","0",\N
"2018745370","2144361113","0",\N
"2018745370","2152580645","0",\N
"2018745370","2153084230","0",\N
"2018745370","2154900736","0",\N
"2018745370","2156000104","0",\N
"2018745370","2157979971","0",\N
"2018745370","2167911783","0",\N
"2018745370","2752853835","0",\N
"2027976416","1490473477","0",\N
"2027976416","1526124194","0",\N
"2027976416","1554813885","0",\N
"2027976416","1561988317","0",\N
"2027976416","1791587242","0",\N
"2027976416","1982558719","1",\N
"2027976416","2026463897","0",\N
"2027976416","2041563709","1",\N
"2027976416","2053550438","0",\N
"2027976416","2061884758","0",\N
"2027976416","2063039343","0",\N
"2027976416","2102166438","0",\N
"2027976416","2102489964","0",\N
"2027976416","2134331592","0",\N
"2027976416","2143672210","0",\N
"2027976416","2175796269","0",\N
"2027976416","2499382624","0",\N
"2030528599","2102166438","1",\N
"2030528599","2160149182","1",\N
"2041563709","1480809079","0",\N
"2041563709","1581547316","0",\N
"2041563709","1587011656","0",\N
"2041563709","1975731516","0",\N
"2041563709","1991782662","0",\N
"2041563709","1994502095","0",\N
"2041563709","2007069074","0",\N
"2041563709","2025952212","0",\N
"2041563709","2060091058","0",\N
"2041563709","2065840988","0",\N
"2041563709","2068901259","1",\N
"2041563709","2081963263","0",\N
"2041563709","2102166438","1",\N
"2041563709","2120754641","0",\N
"2041563709","2133384222","0",\N
"2041563709","2135499008","1",\N
"2041563709","2136195851","0",\N
"2041563709","2137516889","0",\N
"2041563709","2153329411","0",\N
"2041563709","2171147420","1",\N
"2041563709","2171438172","0",\N
"2041563709","2171903035","0",\N
"2041563709","2203361072","0",\N
"2041563709","25483517","0",\N
"2044564105","138816814","0",\N
"2044564105","1527096327","0",\N
"2044564105","1586825695","0",\N
"2044564105","159696915","0",\N
"2044564105","1913481899","0",\N
"2044564105","1938691758","0",\N
"2044564105","1969085493","0",\N
"2044564105","1973006075","0",\N
"2044564105","1975731516","0",\N
"2044564105","1979447985","1",\N
"2044564105","1987932835","0",\N
"2044564105","1992583823","1",\N
"2044564105","2006562722","0",\N
"2044564105","2075095547","0",\N
"2044564105","2103201239","0",\N
"2044564105","2120754641","0",\N
"2044564105","2132461362","0",\N
"2044564105","2134876510","0",\N
"2044564105","21469624","0",\N
"2044564105","2168410847","0",\N
"2044564105","2168605051","0",\N
"2044564105","2170188121","0",\N
"2044564105","2201552871","0",\N
"2044564105","2203361072","1",\N
"2044564105","2207067200","0",\N
"2044564105","2296677182","1",\N
"2044564105","30636452","1",\N
"2044564105","44987379","0",\N
"2078466495","1501042780","0",\N
"2078466495","150801922","0",\N
"2078466495","1515739837","1",\N
"2078466495","1558061241","0",\N
"2078466495","1571065273","1",\N
"2078466495","1578495525","1",\N
"2078466495","1585517570","1",\N
"2078466495","1589154916","0",\N
"2078466495","1597532222","0",\N
"2078466495","1726173744","0",\N
"2078466495","1968766436","0",\N
"2078466495","1995481451","0",\N
"2078466495","1997020216","0",\N
"2078466495","2019358506","0",\N
"2078466495","2021596968","1",\N
"2078466495","2029036662","0",\N
"2078466495","2041563709","1",\N
"2078466495","2054033098","0",\N
"2078466495","2055015814","1",\N
"2078466495","2082859480","0",\N
"2078466495","2097014000","0",\N
"2078466495","2098082683","0",\N
"2078466495","2101922257","0",\N
"2078466495","2102850792","0",\N
"2078466495","2112101330","0",\N
"2078466495","2119414841","0",\N
"2078466495","2120608294","0",\N
"2078466495","2126154209","0",\N
"2078466495","2126583885","0",\N
"2078466495","2133660798","0",\N
"2078466495","2143452574","0",\N
"2078466495","2144296776","0",\N
"2078466495","2145910220","0",\N
"2078466495","2147235907","0",\N
"2078466495","2150206209","0",\N
"2078466495","2153231596","0",\N
"2078466495","2153752068","0",\N
"2078466495","2162747054","0",\N
"2078466495","2203361072","0",\N
"2078466495","2982105161","0",\N
"2078466495","73550927","1",\N
"2078466495","82387787","0",\N
"2100542992","1547206386","0",\N
"2100542992","1786193469","0",\N
"2100542992","1791587242","0",\N
"2100542992","1993819379","1",\N
"2100542992","2018745370","1",\N
"2100542992","2060108852","0",\N
"2100542992","2114474644","1",\N
"2100542992","2132998471","0",\N
"2100542992","2140136514","0",\N
"2100542992","2140453381","0",\N
"2100542992","2146005787","0",\N
"2100542992","2147011911","0",\N
"2100542992","2157174514","0",\N
"2100542992","2912601938","0",\N
"2103216163","1564665474","0",\N
"2103216163","1969565828","0",\N
"2103216163","1978278938","0",\N
"2103216163","1980419087","0",\N
"2103216163","2018745370","1",\N
"2103216163","2047061289","0",\N
"2103216163","2047701135","0",\N
"2103216163","2047809518","0",\N
"2103216163","2048408594","0",\N
"2103216163","2100099053","0",\N
"2103216163","2100542992","1",\N
"2103216163","2101602756","0",\N
"2103216163","2102967864","0",\N
"2103216163","2111087562","0",\N
"2103216163","2112312025","0",\N
"2103216163","2123686039","0",\N
"2103216163","2129816520","0",\N
"2103216163","2132461362","0",\N
"2103216163","2138512691","0",\N
"2103216163","2143819160","0",\N
"2103216163","2160829658","0",\N
"2103216163","2625456433","0",\N
"2106895292","104115952","1",\N
"2106895292","1551438051","0",\N
"2106895292","1556076816","0",\N
"2106895292","1556344493","0",\N
"2106895292","1568349357","0",\N
"2106895292","1607995248","0",\N
"2106895292","1612155886","0",\N
"2106895292","17071393","1",\N
"2106895292","1839867872","0",\N
"2106895292","1979966822","0",\N
"2106895292","1994962776","0",\N
"2106895292","2005639687","0",\N
"2106895292","2029873015","0",\N
"2106895292","2037600449","0",\N
"2106895292","2054658115","0",\N
"2106895292","2072764742","0",\N
"2106895292","2116493296","0",\N
"2106895292","2131576956","0",\N
"2106895292","2133331024","0",\N
"2106895292","2135479443","0",\N
"2106895292","2140327372","0",\N
"2106895292","2143455443","0",\N
"2106895292","2151763080","0",\N
"2106895292","2155960838","1",\N
"2106895292","2167024438","1",\N
"2113831242","1547206386","0",\N
"2113831242","1791587242","0",\N
"2113831242","1890220130","1",\N
"2113831242","1987238352","0",\N
"2113831242","2039910065","0",\N
"2113831242","2096496252","0",\N
"2113831242","2100542992","1",\N
"2113831242","2102729946","0",\N
"2113831242","2123686039","0",\N
"2113831242","2124851765","0",\N
"2113831242","2130642985","0",\N
"2113831242","2133300302","0",\N
"2113831242","2143125604","1",\N
"2113831242","2158913762","0",\N
"2114474644","1547206386","0",\N
"2114474644","1600355623","0",\N
"2114474644","1791587242","0",\N
"2114474644","1978665131","0",\N
"2114474644","1993819379","0",\N
"2114474644","2018745370","1",\N
"2114474644","2020646533","0",\N
"2114474644","2060108852","0",\N
"2114474644","2098315581","0",\N
"2114474644","2105326258","0",\N
"2114474644","2108392934","0",\N
"2114474644","2123686039","0",\N
"2114474644","2124851765","0",\N
"2114474644","2133384222","0",\N
"2114474644","2138512691","0",\N
"2114474644","2140453381","0",\N
"2114474644","21419474","0",\N
"2114474644","2144361113","0",\N
"2114474644","2152580645","0",\N
"2114474644","2153084230","0",\N
"2114474644","2156000104","0",\N
"2114474644","2167911783","0",\N
"2121755841","1515739837","1",\N
"2121755841","2041563709","1",\N
"2121755841","2068901259","0",\N
"2121755841","2102166438","1",\N
"2131413649","1480809079","0",\N
"2131413649","1581547316","0",\N
"2131413649","1608665031","0",\N
"2131413649","1975731516","0",\N
"2131413649","1977786400","0",\N
"2131413649","1991782662","0",\N
"2131413649","1998085622","1",\N
"2131413649","1999593441","0",\N
"2131413649","2007069074","0",\N
"2131413649","2024060531","0",\N
"2131413649","2065840988","0",\N
"2131413649","2068901259","0",\N
"2131413649","2073479529","0",\N
"2131413649","2102166438","1",\N
"2131413649","2120754641","0",\N
"2131413649","2153329411","0",\N
"2131413649","2160770337","0",\N
"2131413649","2171903035","0",\N
"2131413649","25483517","0",\N
"2135499008","109947125","0",\N
"2135499008","1493149182","0",\N
"2135499008","1500547548","0",\N
"2135499008","150801922","0",\N
"2135499008","1572028520","0",\N
"2135499008","159696915","0",\N
"2135499008","1684311429","1",\N
"2135499008","1749554492","0",\N
"2135499008","176053229","0",\N
"2135499008","1989078417","1",\N
"2135499008","1998498767","0",\N
"2135499008","2000080679","0",\N
"2135499008","2002076319","0",\N
"2135499008","2002110561","0",\N
"2135499008","2009551863","0",\N
"2135499008","2038176938","0",\N
"2135499008","2058879737","0",\N
"2135499008","2058978608","0",\N
"2135499008","2091936226","0",\N
"2135499008","2097432384","0",\N
"2135499008","2098416578","0",\N
"2135499008","2104532741","0",\N
"2135499008","2109149785","0",\N
"2135499008","2116502002","0",\N
"2135499008","2120754641","0",\N
"2135499008","2123981539","0",\N
"2135499008","2132461362","0",\N
"2135499008","2132520482","0",\N
"2135499008","2145244102","0",\N
"2135499008","2148251644","0",\N
"2135499008","2153329411","0",\N
"2135499008","2160091496","0",\N
"2135499008","2169593628","1",\N
"2135499008","2201552871","0",\N
"2135499008","2203361072","1",\N
"2135499008","2911283634","0",\N
"2135499008","2914656440","0",\N
"2135499008","3007910781","0",\N
"2135499008","33041674","0",\N
"2135499008","95089647","0",\N
"2143125604","1547206386","0",\N
"2143125604","1564665474","0",\N
"2143125604","1570477871","0",\N
"2143125604","2018745370","1",\N
"2143125604","2075345089","0",\N
"2143125604","2100542992","1",\N
"2143125604","2123686039","0",\N
"2143125604","2124851765","0",\N
"2143125604","2133300302","0",\N
"2143125604","2140453381","0",\N
"2143125604","2147076738","0",\N
"2143125604","2153084230","0",\N
"2143125604","53121305","0",\N
"2151037077","1485145428","0",\N
"2151037077","1501042780","0",\N
"2151037077","1590198000","0",\N
"2151037077","1920644729","0",\N
"2151037077","2029036662","0",\N
"2151037077","2058978608","0",\N
"2151037077","2068901259","0",\N
"2151037077","2075476359","0",\N
"2151037077","2077179418","0",\N
"2151037077","2081628764","0",\N
"2151037077","2098416578","0",\N
"2151037077","2102166438","0",\N
"2151037077","2128350269","0",\N
"2151037077","2132375650","0",\N
"2151037077","2150974577","0",\N
"2151037077","2152686036","0",\N
"2151037077","2160770337","0",\N
"2151037077","2168410847","0",\N
"2151037077","2168605051","0",\N
"2151037077","2171147420","1",\N
"2151037077","2203361072","0",\N
"2151037077","2753710282","0",\N
"2160149182","1546838426","0",\N
"2160149182","1564713430","0",\N
"2160149182","180117462","0",\N
"2160149182","1975270911","1",\N
"2160149182","2043885422","0",\N
"2160149182","2060091058","0",\N
"2160149182","2102166438","1",\N
"2160149182","2102489964","1",\N
"2160149182","2120108467","0",\N
"2160149182","2153230306","0",\N
"2160149182","2171903035","1",\N
"2160149182","2212047990","1",\N
"2160149182","2540830414","0",\N
"2160149182","85801641","0",\N
"2161569281","1500547548","0",\N
"2161569281","150801922","0",\N
"2161569281","1523736481","0",\N
"2161569281","1637025029","0",\N
"2161569281","1684311429","1",\N
"2161569281","1701068577","1",\N
"2161569281","1749554492","1",\N
"2161569281","176053229","0",\N
"2161569281","1971405342","0",\N
"2161569281","1971652947","0",\N
"2161569281","1989078417","1",\N
"2161569281","1993863827","0",\N
"2161569281","1997020216","0",\N
"2161569281","2001474264","0",\N
"2161569281","2002110561","0",\N
"2161569281","2010365467","0",\N
"2161569281","2041770008","1",\N
"2161569281","2044564105","1",\N
"2161569281","2058978608","0",\N
"2161569281","2081189989","0",\N
"2161569281","2098416578","0",\N
"2161569281","2100758984","0",\N
"2161569281","2107887442","0",\N
"2161569281","2109149785","0",\N
"2161569281","2118049966","0",\N
"2161569281","2118828104","0",\N
"2161569281","2120754641","1",\N
"2161569281","2122296645","1",\N
"2161569281","2132461362","0",\N
"2161569281","2132520482","0",\N
"2161569281","2135499008","1",\N
"2161569281","2141174150","0",\N
"2161569281","2144771673","1",\N
"2161569281","2153834102","0",\N
"2161569281","2155960838","1",\N
"2161569281","2158237121","0",\N
"2161569281","2167396179","0",\N
"2161569281","2169593628","1",\N
"2161569281","2171147420","1",\N
"2161569281","2171177618","1",\N
"2161569281","2203361072","1",\N
"2161569281","2207067200","0",\N
"2161569281","2645036108","0",\N
"2161569281","2976445918","1",\N
"2171147420","150801922","0",\N
"2171147420","1527643973","0",\N
"2171147420","1560473542","0",\N
"2171147420","1566251565","0",\N
"2171147420","1592347175","0",\N
"2171147420","1592609929","0",\N
"2171147420","159696915","0",\N
"2171147420","1600795850","0",\N
"2171147420","166430344","0",\N
"2171147420","1684311429","1",\N
"2171147420","1969085493","0",\N
"2171147420","1979447985","1",\N
"2171147420","1987645871","0",\N
"2171147420","1988504473","1",\N
"2171147420","1989078417","1",\N
"2171147420","2001474264","0",\N
"2171147420","2020147322","1",\N
"2171147420","2043934800","0",\N
"2171147420","2044564105","1",\N
"2171147420","2060091058","0",\N
"2171147420","2066623874","0",\N
"2171147420","2102166438","0",\N
"2171147420","2103701698","0",\N
"2171147420","2109149785","0",\N
"2171147420","2115205952","0",\N
"2171147420","2118828104","0",\N
"2171147420","2120754641","0",\N
"2171147420","2133384222","0",\N
"2171147420","2134876510","0",\N
"2171147420","2135499008","1",\N
"2171147420","2144771673","0",\N
"2171147420","21469624","0",\N
"2171147420","2153834102","0",\N
"2171147420","2163192219","0",\N
"2171147420","2168410847","0",\N
"2171147420","2170188121","0",\N
"2171147420","2171438172","0",\N
"2171147420","2201552871","0",\N
"2171147420","2203361072","1",\N
"2171147420","2207067200","0",\N
"2171147420","2296677182","1",\N
"2171147420","3007910781","0",\N
"2182331413","1791587242","0",\N
"2182331413","1890220130","1",\N
"2182331413","1967601791","1",\N
"2182331413","199215620","0",\N
"2182331413","1993819379","0",\N
"2182331413","2020463726","0",\N
"2182331413","2055774867","0",\N
"2182331413","2096496252","0",\N
"2182331413","2098315581","0",\N
"2182331413","2100542992","1",\N
"2182331413","2105326258","0",\N
"2182331413","2123686039","0",\N
"2182331413","2130642985","0",\N
"2182331413","2140453381","0",\N
"2182331413","2140646908","0",\N
"2182331413","2143125604","1",\N
"2182331413","2167911783","0",\N
"2182331413","2396727930","0",\N
"2188889839","1982632559","0",\N
"2188889839","1987163291","0",\N
"2188889839","1988425770","0",\N
"2188889839","1997020216","0",\N
"2188889839","1998663979","1",\N
"2188889839","2003515726","0",\N
"2188889839","2029690776","0",\N
"2188889839","2038057969","0",\N
"2188889839","2078944907","1",\N
"2188889839","2080427212","0",\N
"2188889839","2101995353","1",\N
"2188889839","2102967864","0",\N
"2188889839","2103460560","0",\N
"2188889839","2104237323","0",\N
"2188889839","2110514750","0",\N
"2188889839","2126583885","0",\N
"2188889839","2128841495","1",\N
"2188889839","2132260309","0",\N
"2188889839","2150054597","1",\N
"2188889839","2168075869","0",\N
"2188889839","2171922437","0",\N
"2188889839","2172190421","0",\N
"2188889839","2172197636","1",\N
"2188889839","2173213060","0",\N
"2212840494","122695936","0",\N
"2212840494","1497349464","0",\N
"2212840494","1509496112","0",\N
"2212840494","1513212936","0",\N
"2212840494","1513521910","0",\N
"2212840494","1525799463","0",\N
"2212840494","1531382496","0",\N
"2212840494","1550745509","0",\N
"2212840494","1552199253","0",\N
"2212840494","1578561455","0",\N
"2212840494","1593289790","0",\N
"2212840494","1610555540","0",\N
"2212840494","1753882361","0",\N
"2212840494","1761246054","0",\N
"2212840494","1812208658","0",\N
"2212840494","1853870740","0",\N
"2212840494","1871722334","0",\N
"2212840494","1876449324","0",\N
"2212840494","1939684029","0",\N
"2212840494","1940851016","0",\N
"2212840494","1950358389","0",\N
"2212840494","2033303189","0",\N
"2212840494","2074231771","0",\N
"2212840494","2104462630","0",\N
"2212840494","2115820047","0",\N
"2212840494","2131574356","0",\N
"2212840494","2132981427","0",\N
"2212840494","2144132532","0",\N
"2212840494","2161711895","0",\N
"2212840494","2207330412","0",\N
"2212840494","2213017586","0",\N
"2212840494","2224424050","0",\N
"2212840494","2255364421","0",\N
"2212840494","2264245275","0",\N
"2212840494","2265661416","0",\N
"2212840494","2276098185","0",\N
"2212840494","2278905704","0",\N
"2212840494","2285074824","0",\N
"2212840494","2396211086","0",\N
"2212840494","2398797830","0",\N
"2212840494","2404524890","0",\N
"2243413644","1035620120","0",\N
"2243413644","1111857474","0",\N
"2243413644","1497569892","0",\N
"2243413644","1502054712","0",\N
"2243413644","1503039052","0",\N
"2243413644","1507781291","0",\N
"2243413644","1509064028","0",\N
"2243413644","1539091673","0",\N
"2243413644","1543980078","0",\N
"2243413644","1591540900","0",\N
"2243413644","1599449846","0",\N
"2243413644","1621358038","0",\N
"2243413644","1833502664","0",\N
"2243413644","1877220358","0",\N
"2243413644","1967601791","1",\N
"2243413644","1987238352","0",\N
"2243413644","1992640817","0",\N
"2243413644","2020463726","0",\N
"2243413644","2029866183","0",\N
"2243413644","2059877472","0",\N
"2243413644","2096668111","0",\N
"2243413644","2125529470","0",\N
"2243413644","2158237121","0",\N
"2243413644","2201475589","0",\N
"2243413644","2218337569","0",\N
"2243413644","2249321038","0",\N
"2243413644","2280041935","0",\N
"2243413644","2297906695","0",\N
"2243413644","2404437203","0",\N
"2243413644","58184363","0",\N
"2243413644","86688856","0",\N
"2243413644","998314795","0",\N
"2278442298","1491163213","0",\N
"2278442298","1508995290","0",\N
"2278442298","1512862401","0",\N
"2278442298","1530288801","0",\N
"2278442298","1538884899","0",\N
"2278442298","1544311210","0",\N
"2278442298","157210873","0",\N
"2278442298","1596612710","0",\N
"2278442298","1746171598","0",\N
"2278442298","1791376479","0",\N
"2278442298","1825080011","0",\N
"2278442298","1833502664","0",\N
"2278442298","1926450117","0",\N
"2278442298","1943557536","0",\N
"2278442298","1952447191","0",\N
"2278442298","1975731516","0",\N
"2278442298","2004145258","0",\N
"2278442298","2015175744","0",\N
"2278442298","2041563709","1",\N
"2278442298","2085546155","0",\N
"2278442298","2143012954","0",\N
"2278442298","2230666827","0",\N
"2278442298","2244748657","0",\N
"2278442298","2244987098","0",\N
"2278442298","2256833855","0",\N
"2278442298","2264749182","0",\N
"2278442298","2267615427","1",\N
"2278442298","2397798671","0",\N
"2278442298","2399731986","0",\N
"2278442298","2399884043","0",\N
"2278442298","2413078561","0",\N
"2292693431","1602137482","0",\N
"2292693431","1852059679","1",\N
"2292693431","1967601791","1",\N
"2292693431","2003515726","0",\N
"2292693431","2007030756","0",\N
"2292693431","2043934800","0",\N
"2292693431","2046609653","0",\N
"2292693431","2072541977","0",\N
"2292693431","2097880677","0",\N
"2292693431","2099035968","0",\N
"2292693431","2099580433","0",\N
"2292693431","2104003087","0",\N
"2292693431","2125529470","0",\N
"2292693431","2144839430","0",\N
"2292693431","2157174514","0",\N
"2292693431","2188889839","1",\N
"2292693431","2406955896","0",\N
"2292693431","2913618476","0",\N
"2292693431","42901544","0",\N
"2395643028","1993819379","0",\N
"2395643028","2057906139","1",\N
"2395643028","2100542992","1",\N
"2395643028","2114474644","1",\N
"2395643028","2143125604","1",\N
"2395643028","30948595","0",\N
"2417855281","1575515591","0",\N
"2417855281","2106911306","0",\N
"2417855281","2218834827","0",\N
"2417855281","2254342139","0",\N
"2417855281","2280100035","0",\N
"2417855281","2298946099","0",\N
"2417855281","2560864097","0",\N
"2428665651","1967601791","1",\N
"2428665651","2006296837","0",\N
"2428665651","2038412523","0",\N
"2428665651","2124851765","0",\N
"2428665651","2130642985","0",\N
"2428665651","2131975293","0",\N
"2428665651","2292693431","1",\N
"2428665651","2396727930","0",\N
"2518182978","1529059502","0",\N
"2518182978","1546448671","0",\N
"2518182978","1573618363","0",\N
"2518182978","1579062041","0",\N
"2518182978","1662765012","0",\N
"2518182978","1905015708","1",\N
"2518182978","1910899727","0",\N
"2518182978","1958403994","0",\N
"2518182978","2108958866","0",\N
"2518182978","2240498342","0",\N
"2518182978","2259245112","0",\N
"2518182978","2270962522","0",\N
"2518182978","2273929753","0",\N
"2518182978","2277944377","0",\N
"2518182978","2297377518","0",\N
"2518182978","2297906695","0",\N
"2518182978","2299701853","0",\N
"2518182978","2308974560","0",\N
"2518182978","2398118431","0",\N
"2518182978","934562234","0",\N
"2518182978","977588856","0",\N
"2556858519","1483290694","0",\N
"2556858519","1595186929","0",\N
"2556858519","1893211042","0",\N
"2556858519","2104954161","1",\N
"2556858519","2219600462","0",\N
"2556858519","2254228932","0",\N
"2556858519","2275530856","0",\N
"2556858519","2337307586","0",\N
"2556858519","2520416717","0",\N
"2584396730","1545155892","0",\N
"2584396730","1548114851","0",\N
"2584396730","1940082493","0",\N
"2584396730","1951522282","0",\N
"2584396730","2011395086","0",\N
"2584396730","2104954161","1",\N
"2584396730","2205524019","0",\N
"2584396730","2266185913","0",\N
"2584396730","2292171024","0",\N
"2584396730","2299738043","0",\N
"2584396730","2305129001","0",\N
"2584396730","2305156399","0",\N
"2584396730","2308270189","0",\N
"2584396730","2345959721","0",\N
"2584396730","2396727930","0",\N
"2584396730","2725226870","0",\N
"2584396730","2764491622","0",\N
"2584396730","648398758","0",\N
"2584396730","933791437","0",\N
"2584505023","1967601791","1",\N
"2584505023","1993892970","0",\N
"2584505023","2006296837","0",\N
"2584505023","2068739275","0",\N
"2584505023","2102729946","0",\N
"2584505023","2124851765","0",\N
"2584505023","2130923111","0",\N
"2584505023","2255491979","0",\N
"2584505023","2394680079","0",\N
"2584505023","2396727930","0",\N
"2584505023","2624304035","0",\N
"2965024626","137525769","0",\N
"2965024626","1433235304","0",\N
"2965024626","1569583874","1",\N
"2965024626","1997020216","0",\N
"2965024626","2007888220","0",\N
"2965024626","2013409485","0",\N
"2965024626","2060440895","0",\N
"2965024626","2068739275","0",\N
"2965024626","2075854425","0",\N
"2965024626","2102729946","0",\N
"2965024626","2135934107","0",\N
"2965024626","2143339985","0",\N
"2965024626","2143522680","0",\N
"2965024626","2155070484","0",\N
"2965024626","2169379483","1",\N
"2965024626","2426624872","0",\N
"2965024626","2579082966","0",\N
"2965024626","2584555500","0",\N
"2965024626","2585130803","0",\N
"2965024626","2601436412","0",\N
"2965024626","2604961016","0",\N
"2965024626","2612704407","1",\N
"2965024626","2923407516","0",\N
"2965024626","2970394949","0",\N
"3008451085","137525769","0",\N
"3008451085","1433235304","0",\N
"3008451085","1569583874","1",\N
"3008451085","2007888220","0",\N
"3008451085","2013409485","0",\N
"3008451085","2060440895","0",\N
"3008451085","2068739275","0",\N
"3008451085","2075854425","0",\N
"3008451085","2102729946","0",\N
"3008451085","2135934107","0",\N
"3008451085","2143339985","0",\N
"3008451085","2143522680","0",\N
"3008451085","2156580773","0",\N
"3008451085","2250374629","0",\N
"3008451085","2426624872","0",\N
"3008451085","2428665651","1",\N
"3008451085","2579082966","0",\N
"3008451085","2584555500","0",\N
"3008451085","2585130803","0",\N
"3008451085","2601436412","0",\N
"3008451085","2604961016","0",\N
"3008451085","2612704407","1",\N
"3008451085","2923407516","0",\N
"3008451085","2970394949","0",\N
"334366032","1553329210","0",\N
"334366032","2109580030","0",\N
"334366032","2277770800","0",\N
"334366032","56122062","0",\N
"334366032","965045567","0",\N
"95466099","1492522106","0",\N
"95466099","150460653","0",\N
"95466099","1506773713","0",\N
"95466099","1508902783","0",\N
"95466099","1559080794","0",\N
"95466099","1568349357","0",\N
"95466099","1819493133","0",\N
"95466099","1965014786","0",\N
"95466099","199703720","0",\N
"95466099","2016758618","0",\N
"95466099","2020559184","0",\N
"95466099","2029036662","0",\N
"95466099","2076821547","0",\N
"95466099","2105252819","0",\N
"95466099","2112101330","0",\N
"95466099","2113959882","0",\N
"95466099","2118173195","0",\N
"95466099","2121900159","0",\N
"95466099","2145606287","0",\N
"95466099","2145943173","0",\N
"95466099","2154010459","0",\N
"95466099","2155795622","0",\N
"95466099","2164688050","0",\N
"95466099","2395059878","0",\N
"95466099","2753710282","0",\N
"95466099","2950660196","0",\N
"95466099","74428446","0",\N
