"1480461337","2171147420","1.25"
"2171147420","1480461337","1.25"
"1480461337","2278442298","1"
"2278442298","1480461337","1"
"1480461337","1584770030","0.25"
"1584770030","1480461337","0.25"
"1480461337","1967601791","0.583333"
"1967601791","1480461337","0.583333"
"1480461337","2292693431","0.583333"
"2292693431","1480461337","0.583333"
"1584770030","1967601791","0.703968"
"1967601791","1584770030","0.703968"
"1584770030","2171147420","0.25"
"2171147420","1584770030","0.25"
"1584770030","2292693431","1.45"
"2292693431","1584770030","1.45"
"1967601791","2171147420","0.25"
"2171147420","1967601791","0.25"
"1967601791","2292693431","2.08333"
"2292693431","1967601791","2.08333"
"2171147420","2292693431","0.25"
"2292693431","2171147420","0.25"
"1480461337","1905015708","0.333333"
"1905015708","1480461337","0.333333"
"1905015708","1967601791","0.333333"
"1967601791","1905015708","0.333333"
"1905015708","2292693431","0.333333"
"2292693431","1905015708","0.333333"
"1480461337","2243413644","1"
"2243413644","1480461337","1"
"1492920349","1975677592","1"
"1975677592","1492920349","1"
"1499807075","1515739837","0.166667"
"1515739837","1499807075","0.166667"
"1499807075","1538818174","0.166667"
"1538818174","1499807075","0.166667"
"1499807075","2027976416","0.166667"
"2027976416","1499807075","0.166667"
"1499807075","2078466495","0.166667"
"2078466495","1499807075","0.166667"
"1499807075","2121755841","0.166667"
"2121755841","1499807075","0.166667"
"1499807075","2278442298","0.166667"
"2278442298","1499807075","0.166667"
"1515739837","1538818174","0.333333"
"1538818174","1515739837","0.333333"
"1515739837","2027976416","0.277778"
"2027976416","1515739837","0.277778"
"1515739837","2078466495","2.26667"
"2078466495","1515739837","2.26667"
"1515739837","2121755841","0.527778"
"2121755841","1515739837","0.527778"
"1515739837","2278442298","0.333333"
"2278442298","1515739837","0.333333"
"1538818174","2027976416","0.166667"
"2027976416","1538818174","0.166667"
"1538818174","2078466495","0.166667"
"2078466495","1538818174","0.166667"
"1538818174","2121755841","0.166667"
"2121755841","1538818174","0.166667"
"1538818174","2278442298","12.8333"
"2278442298","1538818174","12.8333"
"2027976416","2078466495","0.166667"
"2078466495","2027976416","0.166667"
"2027976416","2121755841","0.277778"
"2121755841","2027976416","0.277778"
"2027976416","2278442298","0.166667"
"2278442298","2027976416","0.166667"
"2078466495","2121755841","1.16667"
"2121755841","2078466495","1.16667"
"2078466495","2278442298","0.166667"
"2278442298","2078466495","0.166667"
"2121755841","2278442298","0.166667"
"2278442298","2121755841","0.166667"
"1512955609","1684311429","2.33333"
"1684311429","1512955609","2.33333"
"1512955609","2106895292","13.5"
"2106895292","1512955609","13.5"
"1512955609","95466099","0.5"
"95466099","1512955609","0.5"
"2106895292","95466099","0.5"
"95466099","2106895292","0.5"
"1512955609","1578495525","0.5"
"1578495525","1512955609","0.5"
"1512955609","2151037077","4.33333"
"2151037077","1512955609","4.33333"
"1578495525","2151037077","1.26667"
"2151037077","1578495525","1.26667"
"1512955609","2135499008","0.333333"
"2135499008","1512955609","0.333333"
"1512955609","2161569281","0.833333"
"2161569281","1512955609","0.833333"
"2135499008","2151037077","0.933333"
"2151037077","2135499008","0.933333"
"2135499008","2161569281","8.49286"
"2161569281","2135499008","8.49286"
"2151037077","2161569281","1.26667"
"2161569281","2151037077","1.26667"
"1512955609","1578918886","0.5"
"1578918886","1512955609","0.5"
"1578918886","2106895292","0.5"
"2106895292","1578918886","0.5"
"1512955609","2018745370","1"
"2018745370","1512955609","1"
"2106895292","2161569281","0.5"
"2161569281","2106895292","0.5"
"1512955609","2044564105","0.833333"
"2044564105","1512955609","0.833333"
"2044564105","2151037077","0.85"
"2151037077","2044564105","0.85"
"1512955609","2171147420","0.333333"
"2171147420","1512955609","0.333333"
"1684311429","2044564105","1.32619"
"2044564105","1684311429","1.32619"
"1684311429","2171147420","8.07619"
"2171147420","1684311429","8.07619"
"2044564105","2171147420","6.65952"
"2171147420","2044564105","6.65952"
"1515739837","2041563709","3.80397"
"2041563709","1515739837","3.80397"
"1515739837","2131413649","2.87064"
"2131413649","1515739837","2.87064"
"2041563709","2131413649","4.87064"
"2131413649","2041563709","4.87064"
"1515739837","2151037077","3.04444"
"2151037077","1515739837","3.04444"
"1515739837","1684311429","1.35952"
"1684311429","1515739837","1.35952"
"1515739837","2044564105","1.15952"
"2044564105","1515739837","1.15952"
"1538818174","1684311429","0.166667"
"1684311429","1538818174","0.166667"
"1538818174","2041563709","0.166667"
"2041563709","1538818174","0.166667"
"1538818174","2044564105","0.166667"
"2044564105","1538818174","0.166667"
"1538818174","2131413649","0.166667"
"2131413649","1538818174","0.166667"
"1684311429","2041563709","1.94286"
"2041563709","1684311429","1.94286"
"1684311429","2131413649","0.509524"
"2131413649","1684311429","0.509524"
"1684311429","2278442298","0.166667"
"2278442298","1684311429","0.166667"
"2041563709","2044564105","0.409524"
"2044564105","2041563709","0.409524"
"2041563709","2278442298","0.166667"
"2278442298","2041563709","0.166667"
"2044564105","2131413649","0.309524"
"2131413649","2044564105","0.309524"
"2044564105","2278442298","0.166667"
"2278442298","2044564105","0.166667"
"2131413649","2278442298","0.166667"
"2278442298","2131413649","0.166667"
"1515739837","2161569281","1.07619"
"2161569281","1515739837","1.07619"
"1515739837","2171147420","1.60397"
"2171147420","1515739837","1.60397"
"2161569281","2171147420","6.82619"
"2171147420","2161569281","6.82619"
"2041563709","2121755841","0.361111"
"2121755841","2041563709","0.361111"
"2041563709","2151037077","0.794444"
"2151037077","2041563709","0.794444"
"2121755841","2131413649","0.361111"
"2131413649","2121755841","0.361111"
"2121755841","2151037077","0.361111"
"2151037077","2121755841","0.361111"
"2131413649","2151037077","1.36111"
"2151037077","2131413649","1.36111"
"1515739837","1982558719","0.211111"
"1982558719","1515739837","0.211111"
"1515739837","2030528599","0.111111"
"2030528599","1515739837","0.111111"
"1515739837","2160149182","0.111111"
"2160149182","1515739837","0.111111"
"1982558719","2027976416","6.22222"
"2027976416","1982558719","6.22222"
"1982558719","2030528599","0.111111"
"2030528599","1982558719","0.111111"
"1982558719","2041563709","0.711111"
"2041563709","1982558719","0.711111"
"1982558719","2121755841","0.111111"
"2121755841","1982558719","0.111111"
"1982558719","2131413649","0.611111"
"2131413649","1982558719","0.611111"
"1982558719","2151037077","0.211111"
"2151037077","1982558719","0.211111"
"1982558719","2160149182","0.111111"
"2160149182","1982558719","0.111111"
"1982558719","2171147420","0.211111"
"2171147420","1982558719","0.211111"
"2027976416","2030528599","0.111111"
"2030528599","2027976416","0.111111"
"2027976416","2041563709","0.111111"
"2041563709","2027976416","0.111111"
"2027976416","2131413649","0.111111"
"2131413649","2027976416","0.111111"
"2027976416","2151037077","0.111111"
"2151037077","2027976416","0.111111"
"2027976416","2160149182","1.11111"
"2160149182","2027976416","1.11111"
"2027976416","2171147420","0.111111"
"2171147420","2027976416","0.111111"
"2030528599","2041563709","0.111111"
"2041563709","2030528599","0.111111"
"2030528599","2121755841","0.111111"
"2121755841","2030528599","0.111111"
"2030528599","2131413649","0.111111"
"2131413649","2030528599","0.111111"
"2030528599","2151037077","0.111111"
"2151037077","2030528599","0.111111"
"2030528599","2160149182","0.111111"
"2160149182","2030528599","0.111111"
"2030528599","2171147420","0.111111"
"2171147420","2030528599","0.111111"
"2041563709","2160149182","1.11111"
"2160149182","2041563709","1.11111"
"2041563709","2171147420","2.1873"
"2171147420","2041563709","2.1873"
"2121755841","2160149182","0.111111"
"2160149182","2121755841","0.111111"
"2121755841","2171147420","0.111111"
"2171147420","2121755841","0.111111"
"2131413649","2160149182","0.611111"
"2160149182","2131413649","0.611111"
"2131413649","2171147420","0.253968"
"2171147420","2131413649","0.253968"
"2151037077","2160149182","0.111111"
"2160149182","2151037077","0.111111"
"2151037077","2171147420","0.461111"
"2171147420","2151037077","0.461111"
"2160149182","2171147420","0.611111"
"2171147420","2160149182","0.611111"
"1515739837","2135499008","0.442857"
"2135499008","1515739837","0.442857"
"1684311429","2135499008","2.35952"
"2135499008","1684311429","2.35952"
"1684311429","2161569281","1.32619"
"2161569281","1684311429","1.32619"
"2041563709","2135499008","0.442857"
"2135499008","2041563709","0.442857"
"2041563709","2161569281","1.07619"
"2161569281","2041563709","1.07619"
"2044564105","2135499008","1.40952"
"2135499008","2044564105","1.40952"
"2044564105","2161569281","1.07619"
"2161569281","2044564105","1.07619"
"2131413649","2135499008","0.342857"
"2135499008","2131413649","0.342857"
"2131413649","2161569281","0.142857"
"2161569281","2131413649","0.142857"
"2135499008","2171147420","3.65952"
"2171147420","2135499008","3.65952"
"1515739837","1967601791","0.2"
"1967601791","1515739837","0.2"
"1684311429","1967601791","0.2"
"1967601791","1684311429","0.2"
"1967601791","2041563709","0.2"
"2041563709","1967601791","0.2"
"1967601791","2131413649","0.2"
"2131413649","1967601791","0.2"
"1967601791","2135499008","0.2"
"2135499008","1967601791","0.2"
"1684311429","2151037077","0.35"
"2151037077","1684311429","0.35"
"1515739837","1578495525","0.1"
"1578495525","1515739837","0.1"
"1578495525","1684311429","0.1"
"1684311429","1578495525","0.1"
"1578495525","1982558719","0.1"
"1982558719","1578495525","0.1"
"1578495525","2041563709","0.1"
"2041563709","1578495525","0.1"
"1578495525","2044564105","0.1"
"2044564105","1578495525","0.1"
"1578495525","2078466495","3.51667"
"2078466495","1578495525","3.51667"
"1578495525","2135499008","0.1"
"2135499008","1578495525","0.1"
"1578495525","2161569281","0.35"
"2161569281","1578495525","0.35"
"1578495525","2171147420","0.1"
"2171147420","1578495525","0.1"
"1684311429","1982558719","0.1"
"1982558719","1684311429","0.1"
"1684311429","2078466495","0.35"
"2078466495","1684311429","0.35"
"1982558719","2044564105","0.1"
"2044564105","1982558719","0.1"
"1982558719","2078466495","0.1"
"2078466495","1982558719","0.1"
"1982558719","2135499008","0.1"
"2135499008","1982558719","0.1"
"1982558719","2161569281","0.1"
"2161569281","1982558719","0.1"
"2041563709","2078466495","0.1"
"2078466495","2041563709","0.1"
"2044564105","2078466495","0.1"
"2078466495","2044564105","0.1"
"2078466495","2135499008","0.35"
"2135499008","2078466495","0.35"
"2078466495","2151037077","0.766667"
"2151037077","2078466495","0.766667"
"2078466495","2161569281","0.6"
"2161569281","2078466495","0.6"
"2078466495","2171147420","0.35"
"2171147420","2078466495","0.35"
"1538818174","2243413644","0.5"
"2243413644","1538818174","0.5"
"2243413644","2278442298","0.5"
"2278442298","2243413644","0.5"
"1578495525","2188889839","2.75"
"2188889839","1578495525","2.75"
"1578495525","2965024626","0.25"
"2965024626","1578495525","0.25"
"2078466495","2188889839","0.75"
"2188889839","2078466495","0.75"
"2078466495","2965024626","0.25"
"2965024626","2078466495","0.25"
"2161569281","2188889839","0.25"
"2188889839","2161569281","0.25"
"2161569281","2965024626","0.25"
"2965024626","2161569281","0.25"
"2188889839","2965024626","0.25"
"2965024626","2188889839","0.25"
"1578495525","1595441669","0.166667"
"1595441669","1578495525","0.166667"
"1578495525","182726565","0.166667"
"182726565","1578495525","0.166667"
"1578495525","1969837095","0.166667"
"1969837095","1578495525","0.166667"
"1578495525","95466099","0.166667"
"95466099","1578495525","0.166667"
"1595441669","182726565","0.166667"
"182726565","1595441669","0.166667"
"1595441669","1969837095","0.166667"
"1969837095","1595441669","0.166667"
"1595441669","2078466495","0.166667"
"2078466495","1595441669","0.166667"
"1595441669","2151037077","0.166667"
"2151037077","1595441669","0.166667"
"1595441669","95466099","0.166667"
"95466099","1595441669","0.166667"
"182726565","1969837095","0.166667"
"1969837095","182726565","0.166667"
"182726565","2078466495","0.166667"
"2078466495","182726565","0.166667"
"182726565","2151037077","0.166667"
"2151037077","182726565","0.166667"
"182726565","95466099","0.166667"
"95466099","182726565","0.166667"
"1969837095","2078466495","0.166667"
"2078466495","1969837095","0.166667"
"1969837095","2151037077","0.166667"
"2151037077","1969837095","0.166667"
"1969837095","95466099","1.16667"
"95466099","1969837095","1.16667"
"2078466495","95466099","0.666667"
"95466099","2078466495","0.666667"
"2151037077","95466099","1.16667"
"95466099","2151037077","1.16667"
"1578663810","2018745370","1.83333"
"2018745370","1578663810","1.83333"
"1578663810","2114474644","1.33333"
"2114474644","1578663810","1.33333"
"2018745370","2114474644","6.44444"
"2114474644","2018745370","6.44444"
"1578663810","1967601791","0.5"
"1967601791","1578663810","0.5"
"1967601791","2018745370","0.811111"
"2018745370","1967601791","0.811111"
"1578663810","2182331413","0.333333"
"2182331413","1578663810","0.333333"
"2018745370","2182331413","0.644444"
"2182331413","2018745370","0.644444"
"2114474644","2182331413","3.36111"
"2182331413","2114474644","3.36111"
"1578918886","2103216163","1"
"2103216163","1578918886","1"
"1584770030","1890220130","0.253968"
"1890220130","1584770030","0.253968"
"1584770030","1982558719","0.111111"
"1982558719","1584770030","0.111111"
"1584770030","2018745370","0.111111"
"2018745370","1584770030","0.111111"
"1584770030","2027976416","0.111111"
"2027976416","1584770030","0.111111"
"1584770030","2100542992","0.111111"
"2100542992","1584770030","0.111111"
"1584770030","2113831242","0.253968"
"2113831242","1584770030","0.253968"
"1584770030","2114474644","0.111111"
"2114474644","1584770030","0.111111"
"1584770030","2182331413","0.653968"
"2182331413","1584770030","0.653968"
"1890220130","1967601791","1.37063"
"1967601791","1890220130","1.37063"
"1890220130","1982558719","0.111111"
"1982558719","1890220130","0.111111"
"1890220130","2018745370","0.311111"
"2018745370","1890220130","0.311111"
"1890220130","2027976416","0.111111"
"2027976416","1890220130","0.111111"
"1890220130","2100542992","0.694444"
"2100542992","1890220130","0.694444"
"1890220130","2113831242","2.4873"
"2113831242","1890220130","2.4873"
"1890220130","2114474644","0.561111"
"2114474644","1890220130","0.561111"
"1890220130","2182331413","1.0373"
"2182331413","1890220130","1.0373"
"1967601791","1982558719","0.111111"
"1982558719","1967601791","0.111111"
"1967601791","2027976416","0.111111"
"2027976416","1967601791","0.111111"
"1967601791","2100542992","0.444444"
"2100542992","1967601791","0.444444"
"1967601791","2113831242","2.0373"
"2113831242","1967601791","2.0373"
"1967601791","2114474644","0.111111"
"2114474644","1967601791","0.111111"
"1967601791","2182331413","2.2373"
"2182331413","1967601791","2.2373"
"1982558719","2018745370","0.111111"
"2018745370","1982558719","0.111111"
"1982558719","2100542992","0.111111"
"2100542992","1982558719","0.111111"
"1982558719","2113831242","0.111111"
"2113831242","1982558719","0.111111"
"1982558719","2114474644","0.111111"
"2114474644","1982558719","0.111111"
"1982558719","2182331413","0.111111"
"2182331413","1982558719","0.111111"
"2018745370","2027976416","0.111111"
"2027976416","2018745370","0.111111"
"2018745370","2100542992","0.611111"
"2100542992","2018745370","0.611111"
"2018745370","2113831242","0.311111"
"2113831242","2018745370","0.311111"
"2027976416","2100542992","0.111111"
"2100542992","2027976416","0.111111"
"2027976416","2113831242","0.111111"
"2113831242","2027976416","0.111111"
"2027976416","2114474644","0.111111"
"2114474644","2027976416","0.111111"
"2027976416","2182331413","0.111111"
"2182331413","2027976416","0.111111"
"2100542992","2113831242","0.444444"
"2113831242","2100542992","0.444444"
"2100542992","2114474644","1.86111"
"2114474644","2100542992","1.86111"
"2100542992","2182331413","0.777778"
"2182331413","2100542992","0.777778"
"2113831242","2114474644","0.894444"
"2114474644","2113831242","0.894444"
"2113831242","2182331413","1.7873"
"2182331413","2113831242","1.7873"
"1584770030","2243413644","0.2"
"2243413644","1584770030","0.2"
"1584770030","2428665651","1.4"
"2428665651","1584770030","1.4"
"1584770030","2584505023","0.4"
"2584505023","1584770030","0.4"
"2182331413","2243413644","0.7"
"2243413644","2182331413","0.7"
"2182331413","2292693431","0.2"
"2292693431","2182331413","0.2"
"2182331413","2428665651","0.6"
"2428665651","2182331413","0.6"
"2182331413","2584505023","0.4"
"2584505023","2182331413","0.4"
"2243413644","2292693431","1.2"
"2292693431","2243413644","1.2"
"2243413644","2428665651","0.2"
"2428665651","2243413644","0.2"
"2243413644","2584505023","0.2"
"2584505023","2243413644","0.2"
"2292693431","2428665651","0.2"
"2428665651","2292693431","0.2"
"2292693431","2584505023","0.2"
"2584505023","2292693431","0.2"
"2428665651","2584505023","1.6"
"2584505023","2428665651","1.6"
"1584770030","2103216163","0.142857"
"2103216163","1584770030","0.142857"
"1584770030","2143125604","0.142857"
"2143125604","1584770030","0.142857"
"1584770030","2395643028","0.142857"
"2395643028","1584770030","0.142857"
"1890220130","2103216163","0.392857"
"2103216163","1890220130","0.392857"
"1890220130","2143125604","0.592857"
"2143125604","1890220130","0.592857"
"1890220130","2395643028","0.72619"
"2395643028","1890220130","0.72619"
"1967601791","2103216163","0.142857"
"2103216163","1967601791","0.142857"
"1967601791","2143125604","0.142857"
"2143125604","1967601791","0.142857"
"1967601791","2395643028","1.72619"
"2395643028","1967601791","1.72619"
"2103216163","2113831242","0.392857"
"2113831242","2103216163","0.392857"
"2103216163","2143125604","1.64286"
"2143125604","2103216163","1.64286"
"2103216163","2182331413","0.392857"
"2182331413","2103216163","0.392857"
"2103216163","2395643028","0.142857"
"2395643028","2103216163","0.142857"
"2113831242","2143125604","1.42619"
"2143125604","2113831242","1.42619"
"2113831242","2395643028","0.392857"
"2395643028","2113831242","0.392857"
"2143125604","2182331413","0.72619"
"2182331413","2143125604","0.72619"
"2143125604","2395643028","0.142857"
"2395643028","2143125604","0.142857"
"2182331413","2395643028","0.72619"
"2395643028","2182331413","0.72619"
"1584770030","2030528599","1"
"2030528599","1584770030","1"
"1584770030","2584396730","0.2"
"2584396730","1584770030","0.2"
"1967601791","2428665651","0.4"
"2428665651","1967601791","0.4"
"1967601791","2584396730","0.7"
"2584396730","1967601791","0.7"
"1967601791","2584505023","0.2"
"2584505023","1967601791","0.2"
"2182331413","2584396730","0.2"
"2584396730","2182331413","0.2"
"2428665651","2584396730","0.2"
"2584396730","2428665651","0.2"
"2584396730","2584505023","0.2"
"2584505023","2584396730","0.2"
"1658167903","2005142245","1"
"2005142245","1658167903","1"
"1684311429","2103216163","1"
"2103216163","1684311429","1"
"1684311429","2114474644","0.333333"
"2114474644","1684311429","0.333333"
"2041563709","2114474644","0.333333"
"2114474644","2041563709","0.333333"
"2114474644","2171147420","0.333333"
"2171147420","2114474644","0.333333"
"1684311429","95466099","1"
"95466099","1684311429","1"
"2100542992","2103216163","0.25"
"2103216163","2100542992","0.25"
"2100542992","2143125604","0.916667"
"2143125604","2100542992","0.916667"
"2103216163","2114474644","1.5"
"2114474644","2103216163","1.5"
"2114474644","2143125604","1.86667"
"2143125604","2114474644","1.86667"
"1890220130","2584505023","0.45"
"2584505023","1890220130","0.45"
"1890220130","2965024626","0.25"
"2965024626","1890220130","0.25"
"1890220130","3008451085","0.25"
"3008451085","1890220130","0.25"
"2113831242","2584505023","0.45"
"2584505023","2113831242","0.45"
"2113831242","2965024626","0.25"
"2965024626","2113831242","0.25"
"2113831242","3008451085","0.25"
"3008451085","2113831242","0.25"
"2584505023","2965024626","0.75"
"2965024626","2584505023","0.75"
"2584505023","3008451085","0.75"
"3008451085","2584505023","0.75"
"2965024626","3008451085","19.75"
"3008451085","2965024626","19.75"
"2100542992","2395643028","0.666667"
"2395643028","2100542992","0.666667"
"1890220130","2428665651","0.4"
"2428665651","1890220130","0.4"
"2113831242","2428665651","0.4"
"2428665651","2113831242","0.4"
"2114474644","2428665651","0.2"
"2428665651","2114474644","0.2"
"2114474644","2584505023","0.2"
"2584505023","2114474644","0.2"
"2143125604","2428665651","0.2"
"2428665651","2143125604","0.2"
"2143125604","2584505023","0.2"
"2584505023","2143125604","0.2"
"2018745370","2428665651","0.2"
"2428665651","2018745370","0.2"
"1905015708","2212840494","1"
"2212840494","1905015708","1"
"1905015708","2113831242","0.5"
"2113831242","1905015708","0.5"
"1905015708","2143125604","0.5"
"2143125604","1905015708","0.5"
"1967601791","2243413644","1"
"2243413644","1967601791","1"
"2113831242","2243413644","0.5"
"2243413644","2113831242","0.5"
"1967601791","2188889839","0.5"
"2188889839","1967601791","0.5"
"2188889839","2292693431","0.5"
"2292693431","2188889839","0.5"
"1967601791","2556858519","0.5"
"2556858519","1967601791","0.5"
"2556858519","2584396730","0.5"
"2584396730","2556858519","0.5"
"1975677592","2027976416","1"
"2027976416","1975677592","1"
"1975677592","2078466495","0.5"
"2078466495","1975677592","0.5"
"1975677592","95466099","0.5"
"95466099","1975677592","0.5"
"1975677592","2135499008","0.5"
"2135499008","1975677592","0.5"
"1975677592","2161569281","0.5"
"2161569281","1975677592","0.5"
"2018745370","2143125604","0.5"
"2143125604","2018745370","0.5"
"2044564105","2103216163","0.333333"
"2103216163","2044564105","0.333333"
"2103216163","2135499008","0.333333"
"2135499008","2103216163","0.333333"
"2103216163","2161569281","0.333333"
"2161569281","2103216163","0.333333"
"2114474644","2395643028","0.333333"
"2395643028","2114474644","0.333333"
"2100542992","2292693431","1"
"2292693431","2100542992","1"
"2103216163","2188889839","1"
"2188889839","2103216163","1"
"2161569281","2243413644","1"
"2243413644","2161569281","1"
"2243413644","2518182978","1"
"2518182978","2243413644","1"
