"1031986092","1681660054","108.042"
"1681660054","1031986092","108.042"
"1031986092","1802281667","107.842"
"1802281667","1031986092","107.842"
"1031986092","2106925620","108.042"
"2106925620","1031986092","108.042"
"1031986092","2122225444","53.9738"
"2122225444","1031986092","53.9738"
"1031986092","2160710637","65.7334"
"2160710637","1031986092","65.7334"
"1031986092","2164041930","107.699"
"2164041930","1031986092","107.699"
"1031986092","2171545627","108.149"
"2171545627","1031986092","108.149"
"1681660054","1802281667","167.775"
"1802281667","1681660054","167.775"
"1681660054","2106925620","316.808"
"2106925620","1681660054","316.808"
"1681660054","2122225444","55.1738"
"2122225444","1681660054","55.1738"
"1681660054","2160710637","63.7334"
"2160710637","1681660054","63.7334"
"1681660054","2164041930","212.966"
"2164041930","1681660054","212.966"
"1681660054","2171545627","172.416"
"2171545627","1681660054","172.416"
"1802281667","2106925620","167.775"
"2106925620","1802281667","167.775"
"1802281667","2122225444","55.1738"
"2122225444","1802281667","55.1738"
"1802281667","2160710637","63.2834"
"2160710637","1802281667","63.2834"
"1802281667","2164041930","167.882"
"2164041930","1802281667","167.882"
"1802281667","2171545627","169.882"
"2171545627","1802281667","169.882"
"2106925620","2122225444","55.1738"
"2122225444","2106925620","55.1738"
"2106925620","2160710637","63.7334"
"2160710637","2106925620","63.7334"
"2106925620","2164041930","212.966"
"2164041930","2106925620","212.966"
"2106925620","2171545627","172.416"
"2171545627","2106925620","172.416"
"2122225444","2160710637","53.6405"
"2160710637","2122225444","53.6405"
"2122225444","2164041930","56.031"
"2164041930","2122225444","56.031"
"2122225444","2171545627","55.031"
"2171545627","2122225444","55.031"
"2160710637","2164041930","63.1405"
"2164041930","2160710637","63.1405"
"2160710637","2171545627","63.5905"
"2171545627","2160710637","63.5905"
"2164041930","2171545627","172.073"
"2171545627","2164041930","172.073"
"1031986092","1721770600","43.2655"
"1721770600","1031986092","43.2655"
"1681660054","1721770600","43.2655"
"1721770600","1681660054","43.2655"
"1721770600","1802281667","43.2655"
"1802281667","1721770600","43.2655"
"1721770600","2106925620","43.2655"
"2106925620","1721770600","43.2655"
"1721770600","2122225444","43.2655"
"2122225444","1721770600","43.2655"
"1721770600","2160710637","43.2655"
"2160710637","1721770600","43.2655"
"1721770600","2164041930","43.1227"
"2164041930","1721770600","43.1227"
"1721770600","2171545627","43.1227"
"2171545627","1721770600","43.1227"
"1031986092","2413462544","1.04563"
"2413462544","1031986092","1.04563"
"1681660054","2413462544","1.24563"
"2413462544","1681660054","1.24563"
"1721770600","2413462544","0.777778"
"2413462544","1721770600","0.777778"
"1802281667","2413462544","1.24563"
"2413462544","1802281667","1.24563"
"2106925620","2413462544","1.24563"
"2413462544","2106925620","1.24563"
"2122225444","2413462544","0.902778"
"2413462544","2122225444","0.902778"
"2160710637","2413462544","1.04563"
"2413462544","2160710637","1.04563"
"2164041930","2413462544","1.24563"
"2413462544","2164041930","1.24563"
"2171545627","2413462544","1.24563"
"2413462544","2171545627","1.24563"
"1031986092","1531266353","0.436111"
"1531266353","1031986092","0.436111"
"1531266353","1681660054","0.936111"
"1681660054","1531266353","0.936111"
"1531266353","1721770600","0.111111"
"1721770600","1531266353","0.111111"
"1531266353","1802281667","0.236111"
"1802281667","1531266353","0.236111"
"1531266353","2106925620","0.936111"
"2106925620","1531266353","0.936111"
"1531266353","2122225444","0.236111"
"2122225444","1531266353","0.236111"
"1531266353","2160710637","0.436111"
"2160710637","1531266353","0.436111"
"1531266353","2164041930","0.236111"
"2164041930","1531266353","0.236111"
"1531266353","2171545627","0.436111"
"2171545627","1531266353","0.436111"
"1031986092","1649935375","0.25"
"1649935375","1031986092","0.25"
"1649935375","1681660054","0.25"
"1681660054","1649935375","0.25"
"1649935375","1802281667","0.25"
"1802281667","1649935375","0.25"
"1649935375","2106925620","0.25"
"2106925620","1649935375","0.25"
"1649935375","2122225444","0.125"
"2122225444","1649935375","0.125"
"1649935375","2160710637","0.125"
"2160710637","1649935375","0.125"
"1649935375","2164041930","0.25"
"2164041930","1649935375","0.25"
"1649935375","2171545627","0.25"
"2171545627","1649935375","0.25"
"1031986092","2474950857","0.125"
"2474950857","1031986092","0.125"
"1031986092","2736042682","0.125"
"2736042682","1031986092","0.125"
"1649935375","2474950857","0.125"
"2474950857","1649935375","0.125"
"1649935375","2736042682","0.267857"
"2736042682","1649935375","0.267857"
"1681660054","2474950857","0.125"
"2474950857","1681660054","0.125"
"1681660054","2736042682","0.125"
"2736042682","1681660054","0.125"
"1802281667","2474950857","0.125"
"2474950857","1802281667","0.125"
"1802281667","2736042682","0.125"
"2736042682","1802281667","0.125"
"2106925620","2474950857","0.125"
"2474950857","2106925620","0.125"
"2106925620","2736042682","0.125"
"2736042682","2106925620","0.125"
"2164041930","2474950857","0.125"
"2474950857","2164041930","0.125"
"2164041930","2736042682","0.125"
"2736042682","2164041930","0.125"
"2171545627","2474950857","0.125"
"2474950857","2171545627","0.125"
"2171545627","2736042682","0.125"
"2736042682","2171545627","0.125"
"2474950857","2736042682","40.625"
"2736042682","2474950857","40.625"
"1031986092","1844092371","0.0909091"
"1844092371","1031986092","0.0909091"
"1031986092","1950325189","0.0909091"
"1950325189","1031986092","0.0909091"
"1031986092","942633524","0.0909091"
"942633524","1031986092","0.0909091"
"1681660054","1844092371","0.257576"
"1844092371","1681660054","0.257576"
"1681660054","1950325189","0.0909091"
"1950325189","1681660054","0.0909091"
"1681660054","942633524","0.424242"
"942633524","1681660054","0.424242"
"1721770600","1844092371","0.0909091"
"1844092371","1721770600","0.0909091"
"1721770600","1950325189","0.0909091"
"1950325189","1721770600","0.0909091"
"1721770600","942633524","0.0909091"
"942633524","1721770600","0.0909091"
"1802281667","1844092371","0.257576"
"1844092371","1802281667","0.257576"
"1802281667","1950325189","0.0909091"
"1950325189","1802281667","0.0909091"
"1802281667","942633524","0.257576"
"942633524","1802281667","0.257576"
"1844092371","1950325189","56.0671"
"1950325189","1844092371","56.0671"
"1844092371","2106925620","0.257576"
"2106925620","1844092371","0.257576"
"1844092371","2122225444","0.0909091"
"2122225444","1844092371","0.0909091"
"1844092371","2160710637","0.0909091"
"2160710637","1844092371","0.0909091"
"1844092371","2164041930","0.257576"
"2164041930","1844092371","0.257576"
"1844092371","2171545627","0.257576"
"2171545627","1844092371","0.257576"
"1844092371","942633524","95.2338"
"942633524","1844092371","95.2338"
"1950325189","2106925620","0.0909091"
"2106925620","1950325189","0.0909091"
"1950325189","2122225444","0.0909091"
"2122225444","1950325189","0.0909091"
"1950325189","2160710637","0.0909091"
"2160710637","1950325189","0.0909091"
"1950325189","2164041930","0.0909091"
"2164041930","1950325189","0.0909091"
"1950325189","2171545627","0.0909091"
"2171545627","1950325189","0.0909091"
"1950325189","942633524","58.5671"
"942633524","1950325189","58.5671"
"2106925620","942633524","0.424242"
"942633524","2106925620","0.424242"
"2122225444","942633524","0.0909091"
"942633524","2122225444","0.0909091"
"2160710637","942633524","0.0909091"
"942633524","2160710637","0.0909091"
"2164041930","942633524","0.424242"
"942633524","2164041930","0.424242"
"2171545627","942633524","0.257576"
"942633524","2171545627","0.257576"
"1531266353","2161603497","8"
"2161603497","1531266353","8"
"1531266353","1649935375","2"
"1649935375","1531266353","2"
"1531266353","1950325189","0.5"
"1950325189","1531266353","0.5"
"1531266353","942633524","0.5"
"942633524","1531266353","0.5"
"1603061663","2287870429","2.30952"
"2287870429","1603061663","2.30952"
"1603061663","1844092371","0.47619"
"1844092371","1603061663","0.47619"
"1603061663","1950325189","0.47619"
"1950325189","1603061663","0.47619"
"1603061663","942633524","0.642857"
"942633524","1603061663","0.642857"
"1603061663","1681660054","0.333333"
"1681660054","1603061663","0.333333"
"1603061663","1753168953","1.30952"
"1753168953","1603061663","1.30952"
"1603061663","2106925620","0.333333"
"2106925620","1603061663","0.333333"
"1603061663","2164041930","0.333333"
"2164041930","1603061663","0.333333"
"1681660054","1753168953","0.5"
"1753168953","1681660054","0.5"
"1681660054","2287870429","0.366667"
"2287870429","1681660054","0.366667"
"1753168953","2106925620","0.5"
"2106925620","1753168953","0.5"
"1753168953","2164041930","0.5"
"2164041930","1753168953","0.5"
"1753168953","2287870429","0.309524"
"2287870429","1753168953","0.309524"
"1753168953","942633524","0.309524"
"942633524","1753168953","0.309524"
"2106925620","2287870429","0.366667"
"2287870429","2106925620","0.366667"
"2164041930","2287870429","0.366667"
"2287870429","2164041930","0.366667"
"2287870429","942633524","0.642857"
"942633524","2287870429","0.642857"
"1603061663","2474950857","0.5"
"2474950857","1603061663","0.5"
"1603061663","2736042682","0.642857"
"2736042682","1603061663","0.642857"
"1603061663","1649935375","0.142857"
"1649935375","1603061663","0.142857"
"1649935375","1753168953","0.142857"
"1753168953","1649935375","0.142857"
"1649935375","1844092371","0.142857"
"1844092371","1649935375","0.142857"
"1649935375","1950325189","0.142857"
"1950325189","1649935375","0.142857"
"1649935375","2287870429","0.142857"
"2287870429","1649935375","0.142857"
"1649935375","942633524","0.142857"
"942633524","1649935375","0.142857"
"1753168953","1844092371","0.142857"
"1844092371","1753168953","0.142857"
"1753168953","1950325189","0.142857"
"1950325189","1753168953","0.142857"
"1753168953","2736042682","0.142857"
"2736042682","1753168953","0.142857"
"1844092371","2287870429","0.47619"
"2287870429","1844092371","0.47619"
"1844092371","2736042682","0.142857"
"2736042682","1844092371","0.142857"
"1950325189","2287870429","0.47619"
"2287870429","1950325189","0.47619"
"1950325189","2736042682","0.142857"
"2736042682","1950325189","0.142857"
"2287870429","2736042682","0.142857"
"2736042682","2287870429","0.142857"
"2736042682","942633524","0.142857"
"942633524","2736042682","0.142857"
"1603061663","1802281667","0.166667"
"1802281667","1603061663","0.166667"
"1603061663","2171545627","0.166667"
"2171545627","1603061663","0.166667"
"1603061663","2835145081","1.16667"
"2835145081","1603061663","1.16667"
"1681660054","2835145081","0.166667"
"2835145081","1681660054","0.166667"
"1802281667","2835145081","0.166667"
"2835145081","1802281667","0.166667"
"2106925620","2835145081","0.166667"
"2835145081","2106925620","0.166667"
"2164041930","2835145081","0.166667"
"2835145081","2164041930","0.166667"
"2171545627","2835145081","0.166667"
"2835145081","2171545627","0.166667"
"1802281667","2287870429","0.2"
"2287870429","1802281667","0.2"
"2171545627","2287870429","0.2"
"2287870429","2171545627","0.2"
"1802281667","2307441041","1"
"2307441041","1802281667","1"
"1844092371","2307441041","0.333333"
"2307441041","1844092371","0.333333"
"1950325189","2307441041","0.333333"
"2307441041","1950325189","0.333333"
"2307441041","942633524","0.333333"
"942633524","2307441041","0.333333"
"1844092371","2408103732","0.333333"
"2408103732","1844092371","0.333333"
"1950325189","2408103732","0.333333"
"2408103732","1950325189","0.333333"
"2408103732","942633524","0.333333"
"942633524","2408103732","0.333333"
"2259076628","2261547490","1"
"2261547490","2259076628","1"
"2261547490","2307441041","11.5"
"2307441041","2261547490","11.5"
"2261547490","2296296997","0.5"
"2296296997","2261547490","0.5"
"2296296997","2307441041","0.5"
"2307441041","2296296997","0.5"
"2296296997","2769333348","6"
"2769333348","2296296997","6"
