"2135001462","2973420230","1"
"2973420230","2135001462","1"
"2135001462","1875740881","1"
"1875740881","2135001462","1"
"2135001462","2051429859","2"
"2051429859","2135001462","2"
"2135001462","2105340527","1"
"2105340527","2135001462","1"
"2135001462","2175749388","1"
"2175749388","2135001462","1"
"2135001462","2609620732","1"
"2609620732","2135001462","1"
"2051429859","2105340527","1"
"2105340527","2051429859","1"
"2051429859","2175749388","1"
"2175749388","2051429859","1"
"2051429859","2609620732","1"
"2609620732","2051429859","1"
"2105340527","2175749388","1"
"2175749388","2105340527","1"
"2105340527","2609620732","1"
"2609620732","2105340527","1"
"2175749388","2609620732","1"
"2609620732","2175749388","1"
"2135001462","219238218","2"
"219238218","2135001462","2"
"2135001462","2157318031","1"
"2157318031","2135001462","1"
"2135001462","2181759750","1"
"2181759750","2135001462","1"
"2135001462","2425076320","1"
"2425076320","2135001462","1"
"2157318031","2181759750","1"
"2181759750","2157318031","1"
"2157318031","2425076320","1"
"2425076320","2157318031","1"
"2181759750","2425076320","1"
"2425076320","2181759750","1"
"2135001462","133959846","1"
"133959846","2135001462","1"
"2135001462","2288381087","1"
"2288381087","2135001462","1"
"2135001462","2421430813","1"
"2421430813","2135001462","1"
"2135001462","2473142630","1"
"2473142630","2135001462","1"
"133959846","2288381087","1"
"2288381087","133959846","1"
"133959846","2421430813","1"
"2421430813","133959846","1"
"133959846","2473142630","1"
"2473142630","133959846","1"
"2288381087","2421430813","1"
"2421430813","2288381087","1"
"2288381087","2473142630","1"
"2473142630","2288381087","1"
"2421430813","2473142630","1"
"2473142630","2421430813","1"
"2135001462","2973691008","1"
"2973691008","2135001462","1"
"2135001462","251194211","1"
"251194211","2135001462","1"
"2135001462","2099188447","4"
"2099188447","2135001462","4"
"2135001462","2119646092","4"
"2119646092","2135001462","4"
"2135001462","2161564812","2"
"2161564812","2135001462","2"
"2119646092","2161564812","1"
"2161564812","2119646092","1"
"2135001462","2344901078","2"
"2344901078","2135001462","2"
"2099188447","2119646092","2"
"2119646092","2099188447","2"
"2099188447","2344901078","2"
"2344901078","2099188447","2"
"2119646092","2344901078","2"
"2344901078","2119646092","2"
"2135001462","2251311236","1"
"2251311236","2135001462","1"
"2099188447","2251311236","1"
"2251311236","2099188447","1"
"2135001462","2810950822","1"
"2810950822","2135001462","1"
"2135001462","2032967751","1"
"2032967751","2135001462","1"
"2135001462","2679249647","1"
"2679249647","2135001462","1"
"2032967751","2051429859","1"
"2051429859","2032967751","1"
"2032967751","2161564812","1"
"2161564812","2032967751","1"
"2032967751","2679249647","1"
"2679249647","2032967751","1"
"2051429859","2161564812","1"
"2161564812","2051429859","1"
"2051429859","2679249647","1"
"2679249647","2051429859","1"
"2161564812","2679249647","1"
"2679249647","2161564812","1"
