"2029382188","2111833059","4"
"2111833059","2029382188","4"
"2029382188","670471553","15"
"670471553","2029382188","15"
"2029382188","2043612345","7"
"2043612345","2029382188","7"
"2029382188","2056179963","15"
"2056179963","2029382188","15"
"2029382188","2144823554","17"
"2144823554","2029382188","17"
"2029382188","2286672774","5"
"2286672774","2029382188","5"
"2029382188","2789610970","6"
"2789610970","2029382188","6"
"670471553","2043612345","7"
"2043612345","670471553","7"
"670471553","2056179963","13"
"2056179963","670471553","13"
"670471553","2144823554","15"
"2144823554","670471553","15"
"670471553","2286672774","5"
"2286672774","670471553","5"
"670471553","2789610970","6"
"2789610970","670471553","6"
"2043612345","2056179963","6"
"2056179963","2043612345","6"
"2043612345","2144823554","7"
"2144823554","2043612345","7"
"2043612345","2286672774","5"
"2286672774","2043612345","5"
"2043612345","2789610970","1"
"2789610970","2043612345","1"
"2056179963","2144823554","15"
"2144823554","2056179963","15"
"2056179963","2286672774","5"
"2286672774","2056179963","5"
"2056179963","2789610970","6"
"2789610970","2056179963","6"
"2144823554","2286672774","5"
"2286672774","2144823554","5"
"2144823554","2789610970","6"
"2789610970","2144823554","6"
"2286672774","2789610970","1"
"2789610970","2286672774","1"
"2029382188","1242818037","3"
"1242818037","2029382188","3"
"2029382188","2133105468","4"
"2133105468","2029382188","4"
"1242818037","2056179963","3"
"2056179963","1242818037","3"
"1242818037","2133105468","2"
"2133105468","1242818037","2"
"1242818037","2144823554","3"
"2144823554","1242818037","3"
"2056179963","2133105468","4"
"2133105468","2056179963","4"
"2133105468","2144823554","4"
"2144823554","2133105468","4"
"2029382188","585877047","1"
"585877047","2029382188","1"
"2029382188","2222547450","1"
"2222547450","2029382188","1"
"2029382188","2223482364","1"
"2223482364","2029382188","1"
"2029382188","2224359808","1"
"2224359808","2029382188","1"
"2029382188","2226256821","1"
"2226256821","2029382188","1"
"2029382188","2226936257","1"
"2226936257","2029382188","1"
"585877047","2222547450","1"
"2222547450","585877047","1"
"585877047","2223482364","1"
"2223482364","585877047","1"
"585877047","2224359808","1"
"2224359808","585877047","1"
"585877047","2226256821","1"
"2226256821","585877047","1"
"585877047","2226936257","1"
"2226936257","585877047","1"
"2222547450","2223482364","1"
"2223482364","2222547450","1"
"2222547450","2224359808","1"
"2224359808","2222547450","1"
"2222547450","2226256821","1"
"2226256821","2222547450","1"
"2222547450","2226936257","1"
"2226936257","2222547450","1"
"2223482364","2224359808","1"
"2224359808","2223482364","1"
"2223482364","2226256821","1"
"2226256821","2223482364","1"
"2223482364","2226936257","1"
"2226936257","2223482364","1"
"2224359808","2226256821","1"
"2226256821","2224359808","1"
"2224359808","2226936257","1"
"2226936257","2224359808","1"
"2226256821","2226936257","1"
"2226936257","2226256821","1"
"2029382188","2798898621","3"
"2798898621","2029382188","3"
"2029382188","2854153300","7"
"2854153300","2029382188","7"
"670471553","2798898621","3"
"2798898621","670471553","3"
"670471553","2854153300","7"
"2854153300","670471553","7"
"2056179963","2798898621","3"
"2798898621","2056179963","3"
"2056179963","2854153300","7"
"2854153300","2056179963","7"
"2144823554","2798898621","3"
"2798898621","2144823554","3"
"2144823554","2854153300","7"
"2854153300","2144823554","7"
"2789610970","2798898621","3"
"2798898621","2789610970","3"
"2789610970","2854153300","5"
"2854153300","2789610970","5"
"2798898621","2854153300","3"
"2854153300","2798898621","3"
"2029382188","2064340457","2"
"2064340457","2029382188","2"
"2029382188","2278716553","1"
"2278716553","2029382188","1"
"670471553","2064340457","2"
"2064340457","670471553","2"
"670471553","2278716553","1"
"2278716553","670471553","1"
"2064340457","2144823554","2"
"2144823554","2064340457","2"
"2064340457","2278716553","1"
"2278716553","2064340457","1"
"2144823554","2278716553","1"
"2278716553","2144823554","1"
"2029382188","318863791","2"
"318863791","2029382188","2"
"2029382188","1799214369","3"
"1799214369","2029382188","3"
"2029382188","2030494156","5"
"2030494156","2029382188","5"
"318863791","670471553","2"
"670471553","318863791","2"
"318863791","1242818037","2"
"1242818037","318863791","2"
"318863791","1799214369","1"
"1799214369","318863791","1"
"318863791","2030494156","2"
"2030494156","318863791","2"
"318863791","2043612345","2"
"2043612345","318863791","2"
"318863791","2056179963","2"
"2056179963","318863791","2"
"318863791","2064340457","1"
"2064340457","318863791","1"
"318863791","2133105468","1"
"2133105468","318863791","1"
"318863791","2144823554","2"
"2144823554","318863791","2"
"318863791","2286672774","1"
"2286672774","318863791","1"
"670471553","1242818037","2"
"1242818037","670471553","2"
"670471553","1799214369","3"
"1799214369","670471553","3"
"670471553","2030494156","5"
"2030494156","670471553","5"
"670471553","2133105468","3"
"2133105468","670471553","3"
"1242818037","1799214369","1"
"1799214369","1242818037","1"
"1242818037","2030494156","2"
"2030494156","1242818037","2"
"1242818037","2043612345","2"
"2043612345","1242818037","2"
"1242818037","2064340457","1"
"2064340457","1242818037","1"
"1242818037","2286672774","1"
"2286672774","1242818037","1"
"1799214369","2030494156","3"
"2030494156","1799214369","3"
"1799214369","2043612345","3"
"2043612345","1799214369","3"
"1799214369","2056179963","3"
"2056179963","1799214369","3"
"1799214369","2064340457","1"
"2064340457","1799214369","1"
"1799214369","2133105468","2"
"2133105468","1799214369","2"
"1799214369","2144823554","3"
"2144823554","1799214369","3"
"1799214369","2286672774","3"
"2286672774","1799214369","3"
"2030494156","2043612345","5"
"2043612345","2030494156","5"
"2030494156","2056179963","5"
"2056179963","2030494156","5"
"2030494156","2064340457","1"
"2064340457","2030494156","1"
"2030494156","2133105468","3"
"2133105468","2030494156","3"
"2030494156","2144823554","5"
"2144823554","2030494156","5"
"2030494156","2286672774","4"
"2286672774","2030494156","4"
"2043612345","2064340457","1"
"2064340457","2043612345","1"
"2043612345","2133105468","3"
"2133105468","2043612345","3"
"2056179963","2064340457","1"
"2064340457","2056179963","1"
"2064340457","2133105468","1"
"2133105468","2064340457","1"
"2064340457","2286672774","1"
"2286672774","2064340457","1"
"2133105468","2286672774","3"
"2286672774","2133105468","3"
"2029382188","2520172770","1"
"2520172770","2029382188","1"
"2029382188","2164202077","3"
"2164202077","2029382188","3"
"670471553","2164202077","3"
"2164202077","670471553","3"
"2056179963","2164202077","3"
"2164202077","2056179963","3"
"2144823554","2164202077","3"
"2164202077","2144823554","3"
"2164202077","2789610970","2"
"2789610970","2164202077","2"
"2164202077","2854153300","3"
"2854153300","2164202077","3"
"2029382188","2572384970","1"
"2572384970","2029382188","1"
"2029382188","2864813058","5"
"2864813058","2029382188","5"
"670471553","2572384970","1"
"2572384970","670471553","1"
"670471553","2864813058","4"
"2864813058","670471553","4"
"2056179963","2572384970","1"
"2572384970","2056179963","1"
"2056179963","2864813058","5"
"2864813058","2056179963","5"
"2144823554","2572384970","1"
"2572384970","2144823554","1"
"2144823554","2864813058","5"
"2864813058","2144823554","5"
"2572384970","2854153300","1"
"2854153300","2572384970","1"
"2572384970","2864813058","1"
"2864813058","2572384970","1"
"2854153300","2864813058","2"
"2864813058","2854153300","2"
"2029382188","2225894611","1"
"2225894611","2029382188","1"
"2164202077","2864813058","1"
"2864813058","2164202077","1"
"318863791","2864813058","1"
"2864813058","318863791","1"
"1242818037","2864813058","1"
"2864813058","1242818037","1"
"2030494156","2864813058","2"
"2864813058","2030494156","2"
"2043612345","2864813058","2"
"2864813058","2043612345","2"
"1799214369","2864813058","1"
"2864813058","1799214369","1"
"2286672774","2864813058","1"
"2864813058","2286672774","1"
"2029382188","46937997","1"
"46937997","2029382188","1"
"2029382188","2118814867","1"
"2118814867","2029382188","1"
"2029382188","2155360023","1"
"2155360023","2029382188","1"
"2029382188","2161544986","1"
"2161544986","2029382188","1"
"46937997","2111833059","1"
"2111833059","46937997","1"
"46937997","2118814867","1"
"2118814867","46937997","1"
"46937997","2155360023","1"
"2155360023","46937997","1"
"46937997","2161544986","1"
"2161544986","46937997","1"
"2111833059","2118814867","1"
"2118814867","2111833059","1"
"2111833059","2155360023","1"
"2155360023","2111833059","1"
"2111833059","2161544986","1"
"2161544986","2111833059","1"
"2118814867","2155360023","1"
"2155360023","2118814867","1"
"2118814867","2161544986","1"
"2161544986","2118814867","1"
"2155360023","2161544986","1"
"2161544986","2155360023","1"
"2029382188","1283560657","1"
"1283560657","2029382188","1"
"670471553","1283560657","1"
"1283560657","670471553","1"
"1283560657","2043612345","1"
"2043612345","1283560657","1"
"1283560657","2144823554","1"
"2144823554","1283560657","1"
