"2001295541","2150621618","4"
"2150621618","2001295541","4"
"2001295541","2565919050","1"
"2565919050","2001295541","1"
"2001295541","2567506478","1"
"2567506478","2001295541","1"
"2001295541","2938410742","1"
"2938410742","2001295541","1"
"2565919050","2567506478","1"
"2567506478","2565919050","1"
"2565919050","2938410742","1"
"2938410742","2565919050","1"
"2567506478","2938410742","1"
"2938410742","2567506478","1"
"2001295541","2289364316","8"
"2289364316","2001295541","8"
"2001295541","2126003399","4"
"2126003399","2001295541","4"
"2001295541","2268313030","1"
"2268313030","2001295541","1"
"2001295541","2269830577","1"
"2269830577","2001295541","1"
"2126003399","2268313030","1"
"2268313030","2126003399","1"
"2126003399","2269830577","1"
"2269830577","2126003399","1"
"2268313030","2269830577","1"
"2269830577","2268313030","1"
"2001295541","2988818453","3"
"2988818453","2001295541","3"
"2001295541","2324343394","7"
"2324343394","2001295541","7"
"2324343394","2988818453","2"
"2988818453","2324343394","2"
"2001295541","502416515","2"
"502416515","2001295541","2"
"2001295541","2308649827","1"
"2308649827","2001295541","1"
"502416515","2308649827","1"
"2308649827","502416515","1"
"2001295541","237419955","3"
"237419955","2001295541","3"
"2001295541","671527850","3"
"671527850","2001295541","3"
"2001295541","2195111802","1"
"2195111802","2001295541","1"
"2001295541","2308003564","3"
"2308003564","2001295541","3"
"2001295541","2710603291","1"
"2710603291","2001295541","1"
"2001295541","2776939782","1"
"2776939782","2001295541","1"
"237419955","671527850","2"
"671527850","237419955","2"
"237419955","2195111802","1"
"2195111802","237419955","1"
"237419955","2289364316","1"
"2289364316","237419955","1"
"237419955","2308003564","1"
"2308003564","237419955","1"
"237419955","2710603291","1"
"2710603291","237419955","1"
"237419955","2776939782","1"
"2776939782","237419955","1"
"671527850","2195111802","1"
"2195111802","671527850","1"
"671527850","2289364316","2"
"2289364316","671527850","2"
"671527850","2308003564","2"
"2308003564","671527850","2"
"671527850","2710603291","1"
"2710603291","671527850","1"
"671527850","2776939782","1"
"2776939782","671527850","1"
"2195111802","2289364316","1"
"2289364316","2195111802","1"
"2195111802","2308003564","1"
"2308003564","2195111802","1"
"2195111802","2710603291","1"
"2710603291","2195111802","1"
"2195111802","2776939782","1"
"2776939782","2195111802","1"
"2289364316","2308003564","2"
"2308003564","2289364316","2"
"2289364316","2710603291","1"
"2710603291","2289364316","1"
"2289364316","2776939782","1"
"2776939782","2289364316","1"
"2308003564","2710603291","1"
"2710603291","2308003564","1"
"2308003564","2776939782","1"
"2776939782","2308003564","1"
"2710603291","2776939782","1"
"2776939782","2710603291","1"
"2001295541","2077695977","1"
"2077695977","2001295541","1"
"237419955","2077695977","1"
"2077695977","237419955","1"
"2001295541","2169716560","5"
"2169716560","2001295541","5"
"2001295541","2250800329","3"
"2250800329","2001295541","3"
"2001295541","2598372491","2"
"2598372491","2001295541","2"
"2001295541","2764020100","3"
"2764020100","2001295541","3"
"2150621618","2169716560","3"
"2169716560","2150621618","3"
"2150621618","2250800329","3"
"2250800329","2150621618","3"
"2150621618","2598372491","2"
"2598372491","2150621618","2"
"2150621618","2764020100","3"
"2764020100","2150621618","3"
"2169716560","2250800329","3"
"2250800329","2169716560","3"
"2169716560","2598372491","2"
"2598372491","2169716560","2"
"2169716560","2764020100","3"
"2764020100","2169716560","3"
"2250800329","2598372491","2"
"2598372491","2250800329","2"
"2250800329","2764020100","3"
"2764020100","2250800329","3"
"2598372491","2764020100","2"
"2764020100","2598372491","2"
"2001295541","376007138","1"
"376007138","2001295541","1"
"237419955","376007138","1"
"376007138","237419955","1"
"376007138","671527850","1"
"671527850","376007138","1"
"2001295541","1950413898","2"
"1950413898","2001295541","2"
"2001295541","2107508359","3"
"2107508359","2001295541","3"
"2001295541","2145507332","3"
"2145507332","2001295541","3"
"2001295541","2761158989","2"
"2761158989","2001295541","2"
"2001295541","2950485468","2"
"2950485468","2001295541","2"
"1950413898","2107508359","2"
"2107508359","1950413898","2"
"1950413898","2126003399","2"
"2126003399","1950413898","2"
"1950413898","2145507332","2"
"2145507332","1950413898","2"
"1950413898","2169716560","2"
"2169716560","1950413898","2"
"1950413898","2761158989","2"
"2761158989","1950413898","2"
"1950413898","2950485468","1"
"2950485468","1950413898","1"
"2107508359","2126003399","3"
"2126003399","2107508359","3"
"2107508359","2145507332","3"
"2145507332","2107508359","3"
"2107508359","2169716560","3"
"2169716560","2107508359","3"
"2107508359","2761158989","2"
"2761158989","2107508359","2"
"2107508359","2950485468","1"
"2950485468","2107508359","1"
"2126003399","2145507332","3"
"2145507332","2126003399","3"
"2126003399","2169716560","3"
"2169716560","2126003399","3"
"2126003399","2761158989","2"
"2761158989","2126003399","2"
"2126003399","2950485468","1"
"2950485468","2126003399","1"
"2145507332","2169716560","3"
"2169716560","2145507332","3"
"2145507332","2761158989","2"
"2761158989","2145507332","2"
"2145507332","2950485468","1"
"2950485468","2145507332","1"
"2169716560","2761158989","2"
"2761158989","2169716560","2"
"2169716560","2950485468","1"
"2950485468","2169716560","1"
"2761158989","2950485468","1"
"2950485468","2761158989","1"
"2001295541","2230205249","1"
"2230205249","2001295541","1"
"2001295541","2154833104","1"
"2154833104","2001295541","1"
"502416515","2154833104","1"
"2154833104","502416515","1"
"2001295541","216605872","1"
"216605872","2001295541","1"
"2001295541","2113001643","1"
"2113001643","2001295541","1"
"2001295541","2131573560","1"
"2131573560","2001295541","1"
"2001295541","2147597525","1"
"2147597525","2001295541","1"
"2001295541","2150071199","1"
"2150071199","2001295541","1"
"2001295541","2307549475","1"
"2307549475","2001295541","1"
"2001295541","2658817370","1"
"2658817370","2001295541","1"
"2001295541","2762702525","1"
"2762702525","2001295541","1"
"216605872","2113001643","1"
"2113001643","216605872","1"
"216605872","2131573560","1"
"2131573560","216605872","1"
"216605872","2147597525","1"
"2147597525","216605872","1"
"216605872","2150071199","1"
"2150071199","216605872","1"
"216605872","2307549475","1"
"2307549475","216605872","1"
"216605872","2658817370","1"
"2658817370","216605872","1"
"216605872","2762702525","1"
"2762702525","216605872","1"
"216605872","2950485468","1"
"2950485468","216605872","1"
"2113001643","2131573560","1"
"2131573560","2113001643","1"
"2113001643","2147597525","1"
"2147597525","2113001643","1"
"2113001643","2150071199","1"
"2150071199","2113001643","1"
"2113001643","2307549475","1"
"2307549475","2113001643","1"
"2113001643","2658817370","1"
"2658817370","2113001643","1"
"2113001643","2762702525","1"
"2762702525","2113001643","1"
"2113001643","2950485468","1"
"2950485468","2113001643","1"
"2131573560","2147597525","1"
"2147597525","2131573560","1"
"2131573560","2150071199","1"
"2150071199","2131573560","1"
"2131573560","2307549475","1"
"2307549475","2131573560","1"
"2131573560","2658817370","1"
"2658817370","2131573560","1"
"2131573560","2762702525","1"
"2762702525","2131573560","1"
"2131573560","2950485468","1"
"2950485468","2131573560","1"
"2147597525","2150071199","1"
"2150071199","2147597525","1"
"2147597525","2307549475","1"
"2307549475","2147597525","1"
"2147597525","2658817370","1"
"2658817370","2147597525","1"
"2147597525","2762702525","1"
"2762702525","2147597525","1"
"2147597525","2950485468","1"
"2950485468","2147597525","1"
"2150071199","2307549475","1"
"2307549475","2150071199","1"
"2150071199","2658817370","1"
"2658817370","2150071199","1"
"2150071199","2762702525","1"
"2762702525","2150071199","1"
"2150071199","2950485468","1"
"2950485468","2150071199","1"
"2307549475","2658817370","1"
"2658817370","2307549475","1"
"2307549475","2762702525","1"
"2762702525","2307549475","1"
"2307549475","2950485468","1"
"2950485468","2307549475","1"
"2658817370","2762702525","1"
"2762702525","2658817370","1"
"2658817370","2950485468","1"
"2950485468","2658817370","1"
"2762702525","2950485468","1"
"2950485468","2762702525","1"
"2289364316","2324343394","2"
"2324343394","2289364316","2"
"2001295541","2426384081","1"
"2426384081","2001295541","1"
"2289364316","2426384081","1"
"2426384081","2289364316","1"
"2324343394","2426384081","1"
"2426384081","2324343394","1"
"2001295541","1902676767","2"
"1902676767","2001295541","2"
"2001295541","2090425178","2"
"2090425178","2001295541","2"
"2001295541","2296043577","2"
"2296043577","2001295541","2"
"2001295541","2689136118","1"
"2689136118","2001295541","1"
"1902676767","2090425178","2"
"2090425178","1902676767","2"
"1902676767","2107508359","2"
"2107508359","1902676767","2"
"1902676767","2126003399","2"
"2126003399","1902676767","2"
"1902676767","2145507332","2"
"2145507332","1902676767","2"
"1902676767","2169716560","2"
"2169716560","1902676767","2"
"1902676767","2296043577","2"
"2296043577","1902676767","2"
"1902676767","2324343394","2"
"2324343394","1902676767","2"
"1902676767","2689136118","1"
"2689136118","1902676767","1"
"2090425178","2107508359","2"
"2107508359","2090425178","2"
"2090425178","2126003399","2"
"2126003399","2090425178","2"
"2090425178","2145507332","2"
"2145507332","2090425178","2"
"2090425178","2169716560","2"
"2169716560","2090425178","2"
"2090425178","2296043577","2"
"2296043577","2090425178","2"
"2090425178","2324343394","2"
"2324343394","2090425178","2"
"2090425178","2689136118","1"
"2689136118","2090425178","1"
"2107508359","2296043577","2"
"2296043577","2107508359","2"
"2107508359","2324343394","2"
"2324343394","2107508359","2"
"2107508359","2689136118","1"
"2689136118","2107508359","1"
"2126003399","2296043577","2"
"2296043577","2126003399","2"
"2126003399","2324343394","2"
"2324343394","2126003399","2"
"2126003399","2689136118","1"
"2689136118","2126003399","1"
"2145507332","2296043577","2"
"2296043577","2145507332","2"
"2145507332","2324343394","2"
"2324343394","2145507332","2"
"2145507332","2689136118","1"
"2689136118","2145507332","1"
"2169716560","2296043577","2"
"2296043577","2169716560","2"
"2169716560","2324343394","2"
"2324343394","2169716560","2"
"2169716560","2689136118","1"
"2689136118","2169716560","1"
"2296043577","2324343394","2"
"2324343394","2296043577","2"
"2296043577","2689136118","1"
"2689136118","2296043577","1"
"2324343394","2689136118","1"
"2689136118","2324343394","1"
"2001295541","2562316889","1"
"2562316889","2001295541","1"
"2001295541","2566571691","1"
"2566571691","2001295541","1"
"2308003564","2562316889","1"
"2562316889","2308003564","1"
"2308003564","2566571691","1"
"2566571691","2308003564","1"
"2562316889","2566571691","1"
"2566571691","2562316889","1"
"2001295541","172400696","1"
"172400696","2001295541","1"
"2001295541","2100645864","1"
"2100645864","2001295541","1"
"2001295541","2135512025","1"
"2135512025","2001295541","1"
"2001295541","2161184178","1"
"2161184178","2001295541","1"
"2001295541","2165492524","1"
"2165492524","2001295541","1"
"2001295541","2600367264","1"
"2600367264","2001295541","1"
"2001295541","2665851981","1"
"2665851981","2001295541","1"
"2001295541","2973562823","1"
"2973562823","2001295541","1"
"172400696","671527850","1"
"671527850","172400696","1"
"172400696","2100645864","1"
"2100645864","172400696","1"
"172400696","2135512025","1"
"2135512025","172400696","1"
"172400696","2161184178","1"
"2161184178","172400696","1"
"172400696","2165492524","1"
"2165492524","172400696","1"
"172400696","2289364316","1"
"2289364316","172400696","1"
"172400696","2308003564","1"
"2308003564","172400696","1"
"172400696","2600367264","1"
"2600367264","172400696","1"
"172400696","2665851981","1"
"2665851981","172400696","1"
"172400696","2973562823","1"
"2973562823","172400696","1"
"671527850","2100645864","1"
"2100645864","671527850","1"
"671527850","2135512025","1"
"2135512025","671527850","1"
"671527850","2161184178","1"
"2161184178","671527850","1"
"671527850","2165492524","1"
"2165492524","671527850","1"
"671527850","2600367264","1"
"2600367264","671527850","1"
"671527850","2665851981","1"
"2665851981","671527850","1"
"671527850","2973562823","1"
"2973562823","671527850","1"
"2100645864","2135512025","1"
"2135512025","2100645864","1"
"2100645864","2161184178","1"
"2161184178","2100645864","1"
"2100645864","2165492524","1"
"2165492524","2100645864","1"
"2100645864","2289364316","1"
"2289364316","2100645864","1"
"2100645864","2308003564","1"
"2308003564","2100645864","1"
"2100645864","2600367264","1"
"2600367264","2100645864","1"
"2100645864","2665851981","1"
"2665851981","2100645864","1"
"2100645864","2973562823","1"
"2973562823","2100645864","1"
"2135512025","2161184178","1"
"2161184178","2135512025","1"
"2135512025","2165492524","1"
"2165492524","2135512025","1"
"2135512025","2289364316","1"
"2289364316","2135512025","1"
"2135512025","2308003564","1"
"2308003564","2135512025","1"
"2135512025","2600367264","1"
"2600367264","2135512025","1"
"2135512025","2665851981","1"
"2665851981","2135512025","1"
"2135512025","2973562823","1"
"2973562823","2135512025","1"
"2161184178","2165492524","1"
"2165492524","2161184178","1"
"2161184178","2289364316","1"
"2289364316","2161184178","1"
"2161184178","2308003564","1"
"2308003564","2161184178","1"
"2161184178","2600367264","1"
"2600367264","2161184178","1"
"2161184178","2665851981","1"
"2665851981","2161184178","1"
"2161184178","2973562823","1"
"2973562823","2161184178","1"
"2165492524","2289364316","1"
"2289364316","2165492524","1"
"2165492524","2308003564","1"
"2308003564","2165492524","1"
"2165492524","2600367264","1"
"2600367264","2165492524","1"
"2165492524","2665851981","1"
"2665851981","2165492524","1"
"2165492524","2973562823","1"
"2973562823","2165492524","1"
"2289364316","2600367264","1"
"2600367264","2289364316","1"
"2289364316","2665851981","1"
"2665851981","2289364316","1"
"2289364316","2973562823","1"
"2973562823","2289364316","1"
"2308003564","2600367264","1"
"2600367264","2308003564","1"
"2308003564","2665851981","1"
"2665851981","2308003564","1"
"2308003564","2973562823","1"
"2973562823","2308003564","1"
"2600367264","2665851981","1"
"2665851981","2600367264","1"
"2600367264","2973562823","1"
"2973562823","2600367264","1"
"2665851981","2973562823","1"
"2973562823","2665851981","1"
"2001295541","2155154275","1"
"2155154275","2001295541","1"
"2001295541","2300291369","1"
"2300291369","2001295541","1"
"2155154275","2300291369","1"
"2300291369","2155154275","1"
"2155154275","2324343394","1"
"2324343394","2155154275","1"
"2300291369","2324343394","1"
"2324343394","2300291369","1"
"2001295541","2162618513","1"
"2162618513","2001295541","1"
"2001295541","2231702406","1"
"2231702406","2001295541","1"
"2001295541","2406750424","1"
"2406750424","2001295541","1"
"2001295541","3024135649","1"
"3024135649","2001295541","1"
"1902676767","1950413898","1"
"1950413898","1902676767","1"
"1902676767","2150621618","1"
"2150621618","1902676767","1"
"1902676767","2162618513","1"
"2162618513","1902676767","1"
"1902676767","2231702406","1"
"2231702406","1902676767","1"
"1902676767","2250800329","1"
"2250800329","1902676767","1"
"1902676767","2406750424","1"
"2406750424","1902676767","1"
"1902676767","2761158989","1"
"2761158989","1902676767","1"
"1902676767","2764020100","1"
"2764020100","1902676767","1"
"1902676767","3024135649","1"
"3024135649","1902676767","1"
"1950413898","2090425178","1"
"2090425178","1950413898","1"
"1950413898","2150621618","1"
"2150621618","1950413898","1"
"1950413898","2162618513","1"
"2162618513","1950413898","1"
"1950413898","2231702406","1"
"2231702406","1950413898","1"
"1950413898","2250800329","1"
"2250800329","1950413898","1"
"1950413898","2296043577","1"
"2296043577","1950413898","1"
"1950413898","2324343394","1"
"2324343394","1950413898","1"
"1950413898","2406750424","1"
"2406750424","1950413898","1"
"1950413898","2764020100","1"
"2764020100","1950413898","1"
"1950413898","3024135649","1"
"3024135649","1950413898","1"
"2090425178","2150621618","1"
"2150621618","2090425178","1"
"2090425178","2162618513","1"
"2162618513","2090425178","1"
"2090425178","2231702406","1"
"2231702406","2090425178","1"
"2090425178","2250800329","1"
"2250800329","2090425178","1"
"2090425178","2406750424","1"
"2406750424","2090425178","1"
"2090425178","2761158989","1"
"2761158989","2090425178","1"
"2090425178","2764020100","1"
"2764020100","2090425178","1"
"2090425178","3024135649","1"
"3024135649","2090425178","1"
"2107508359","2150621618","1"
"2150621618","2107508359","1"
"2107508359","2162618513","1"
"2162618513","2107508359","1"
"2107508359","2231702406","1"
"2231702406","2107508359","1"
"2107508359","2250800329","1"
"2250800329","2107508359","1"
"2107508359","2406750424","1"
"2406750424","2107508359","1"
"2107508359","2764020100","1"
"2764020100","2107508359","1"
"2107508359","3024135649","1"
"3024135649","2107508359","1"
"2126003399","2150621618","1"
"2150621618","2126003399","1"
"2126003399","2162618513","1"
"2162618513","2126003399","1"
"2126003399","2231702406","1"
"2231702406","2126003399","1"
"2126003399","2250800329","1"
"2250800329","2126003399","1"
"2126003399","2406750424","1"
"2406750424","2126003399","1"
"2126003399","2764020100","1"
"2764020100","2126003399","1"
"2126003399","3024135649","1"
"3024135649","2126003399","1"
"2145507332","2150621618","1"
"2150621618","2145507332","1"
"2145507332","2162618513","1"
"2162618513","2145507332","1"
"2145507332","2231702406","1"
"2231702406","2145507332","1"
"2145507332","2250800329","1"
"2250800329","2145507332","1"
"2145507332","2406750424","1"
"2406750424","2145507332","1"
"2145507332","2764020100","1"
"2764020100","2145507332","1"
"2145507332","3024135649","1"
"3024135649","2145507332","1"
"2150621618","2162618513","1"
"2162618513","2150621618","1"
"2150621618","2231702406","1"
"2231702406","2150621618","1"
"2150621618","2296043577","1"
"2296043577","2150621618","1"
"2150621618","2324343394","1"
"2324343394","2150621618","1"
"2150621618","2406750424","1"
"2406750424","2150621618","1"
"2150621618","2761158989","1"
"2761158989","2150621618","1"
"2150621618","3024135649","1"
"3024135649","2150621618","1"
"2162618513","2169716560","1"
"2169716560","2162618513","1"
"2162618513","2231702406","1"
"2231702406","2162618513","1"
"2162618513","2250800329","1"
"2250800329","2162618513","1"
"2162618513","2296043577","1"
"2296043577","2162618513","1"
"2162618513","2324343394","1"
"2324343394","2162618513","1"
"2162618513","2406750424","1"
"2406750424","2162618513","1"
"2162618513","2761158989","1"
"2761158989","2162618513","1"
"2162618513","2764020100","1"
"2764020100","2162618513","1"
"2162618513","3024135649","1"
"3024135649","2162618513","1"
"2169716560","2231702406","1"
"2231702406","2169716560","1"
"2169716560","2406750424","1"
"2406750424","2169716560","1"
"2169716560","3024135649","1"
"3024135649","2169716560","1"
"2231702406","2250800329","1"
"2250800329","2231702406","1"
"2231702406","2296043577","1"
"2296043577","2231702406","1"
"2231702406","2324343394","1"
"2324343394","2231702406","1"
"2231702406","2406750424","1"
"2406750424","2231702406","1"
"2231702406","2761158989","1"
"2761158989","2231702406","1"
"2231702406","2764020100","1"
"2764020100","2231702406","1"
"2231702406","3024135649","1"
"3024135649","2231702406","1"
"2250800329","2296043577","1"
"2296043577","2250800329","1"
"2250800329","2324343394","1"
"2324343394","2250800329","1"
"2250800329","2406750424","1"
"2406750424","2250800329","1"
"2250800329","2761158989","1"
"2761158989","2250800329","1"
"2250800329","3024135649","1"
"3024135649","2250800329","1"
"2296043577","2406750424","1"
"2406750424","2296043577","1"
"2296043577","2761158989","1"
"2761158989","2296043577","1"
"2296043577","2764020100","1"
"2764020100","2296043577","1"
"2296043577","3024135649","1"
"3024135649","2296043577","1"
"2324343394","2406750424","1"
"2406750424","2324343394","1"
"2324343394","2761158989","1"
"2761158989","2324343394","1"
"2324343394","2764020100","1"
"2764020100","2324343394","1"
"2324343394","3024135649","1"
"3024135649","2324343394","1"
"2406750424","2761158989","1"
"2761158989","2406750424","1"
"2406750424","2764020100","1"
"2764020100","2406750424","1"
"2406750424","3024135649","1"
"3024135649","2406750424","1"
"2761158989","2764020100","1"
"2764020100","2761158989","1"
"2761158989","3024135649","1"
"3024135649","2761158989","1"
"2764020100","3024135649","1"
"3024135649","2764020100","1"
"2001295541","2109361280","1"
"2109361280","2001295541","1"
"2001295541","2556364402","1"
"2556364402","2001295541","1"
"2001295541","2761431120","1"
"2761431120","2001295541","1"
"2001295541","2761446404","1"
"2761446404","2001295541","1"
"2109361280","2556364402","1"
"2556364402","2109361280","1"
"2109361280","2761431120","1"
"2761431120","2109361280","1"
"2109361280","2761446404","1"
"2761446404","2109361280","1"
"2556364402","2761431120","1"
"2761431120","2556364402","1"
"2556364402","2761446404","1"
"2761446404","2556364402","1"
"2761431120","2761446404","1"
"2761446404","2761431120","1"
"2001295541","1878631932","1"
"1878631932","2001295541","1"
"1878631932","2289364316","1"
"2289364316","1878631932","1"
