"2112167796","2063640528","9"
"2063640528","2112167796","9"
"2112167796","2251629345","1"
"2251629345","2112167796","1"
"2112167796","2311819533","12"
"2311819533","2112167796","12"
"2112167796","2650971474","1"
"2650971474","2112167796","1"
"2112167796","2973368842","1"
"2973368842","2112167796","1"
"2112167796","2974326439","1"
"2974326439","2112167796","1"
"2251629345","2311819533","1"
"2311819533","2251629345","1"
"2251629345","2650971474","1"
"2650971474","2251629345","1"
"2251629345","2973368842","1"
"2973368842","2251629345","1"
"2251629345","2974326439","1"
"2974326439","2251629345","1"
"2311819533","2650971474","1"
"2650971474","2311819533","1"
"2311819533","2973368842","1"
"2973368842","2311819533","1"
"2311819533","2974326439","1"
"2974326439","2311819533","1"
"2650971474","2973368842","1"
"2973368842","2650971474","1"
"2650971474","2974326439","1"
"2974326439","2650971474","1"
"2973368842","2974326439","1"
"2974326439","2973368842","1"
"2112167796","2095616635","3"
"2095616635","2112167796","3"
"2112167796","2251660241","2"
"2251660241","2112167796","2"
"2112167796","2687967603","6"
"2687967603","2112167796","6"
"2095616635","2251660241","2"
"2251660241","2095616635","2"
"2095616635","2311819533","3"
"2311819533","2095616635","3"
"2095616635","2687967603","2"
"2687967603","2095616635","2"
"2251660241","2311819533","2"
"2311819533","2251660241","2"
"2251660241","2687967603","1"
"2687967603","2251660241","1"
"2311819533","2687967603","6"
"2687967603","2311819533","6"
"2112167796","401236404","24"
"401236404","2112167796","24"
"2112167796","2105103640","18"
"2105103640","2112167796","18"
"2112167796","2129161123","21"
"2129161123","2112167796","21"
"401236404","2105103640","16"
"2105103640","401236404","16"
"401236404","2129161123","16"
"2129161123","401236404","16"
"2105103640","2129161123","17"
"2129161123","2105103640","17"
"2112167796","1919621074","10"
"1919621074","2112167796","10"
"2112167796","2009007797","6"
"2009007797","2112167796","6"
"2112167796","2309335715","2"
"2309335715","2112167796","2"
"2112167796","2513049423","1"
"2513049423","2112167796","1"
"401236404","1919621074","4"
"1919621074","401236404","4"
"401236404","2009007797","4"
"2009007797","401236404","4"
"401236404","2309335715","2"
"2309335715","401236404","2"
"401236404","2513049423","1"
"2513049423","401236404","1"
"1919621074","2009007797","1"
"2009007797","1919621074","1"
"1919621074","2105103640","4"
"2105103640","1919621074","4"
"1919621074","2129161123","5"
"2129161123","1919621074","5"
"1919621074","2309335715","2"
"2309335715","1919621074","2"
"1919621074","2513049423","1"
"2513049423","1919621074","1"
"2009007797","2105103640","5"
"2105103640","2009007797","5"
"2009007797","2129161123","5"
"2129161123","2009007797","5"
"2009007797","2309335715","1"
"2309335715","2009007797","1"
"2009007797","2513049423","1"
"2513049423","2009007797","1"
"2105103640","2309335715","2"
"2309335715","2105103640","2"
"2105103640","2513049423","1"
"2513049423","2105103640","1"
"2129161123","2309335715","2"
"2309335715","2129161123","2"
"2129161123","2513049423","1"
"2513049423","2129161123","1"
"2309335715","2513049423","1"
"2513049423","2309335715","1"
"2112167796","1186758707","4"
"1186758707","2112167796","4"
"2112167796","1963964406","10"
"1963964406","2112167796","10"
"2112167796","2118023846","4"
"2118023846","2112167796","4"
"1186758707","1963964406","4"
"1963964406","1186758707","4"
"1186758707","2118023846","4"
"2118023846","1186758707","4"
"1963964406","2118023846","4"
"2118023846","1963964406","4"
"2112167796","2005619919","2"
"2005619919","2112167796","2"
"2112167796","2213038480","6"
"2213038480","2112167796","6"
"401236404","1963964406","5"
"1963964406","401236404","5"
"401236404","2005619919","2"
"2005619919","401236404","2"
"401236404","2213038480","6"
"2213038480","401236404","6"
"1963964406","2005619919","2"
"2005619919","1963964406","2"
"1963964406","2213038480","2"
"2213038480","1963964406","2"
"2005619919","2213038480","2"
"2213038480","2005619919","2"
"2112167796","240506892","8"
"240506892","2112167796","8"
"2112167796","1987171266","3"
"1987171266","2112167796","3"
"2112167796","2066833720","2"
"2066833720","2112167796","2"
"2112167796","2118460571","5"
"2118460571","2112167796","5"
"240506892","1963964406","2"
"1963964406","240506892","2"
"240506892","1987171266","2"
"1987171266","240506892","2"
"240506892","2066833720","2"
"2066833720","240506892","2"
"240506892","2118460571","2"
"2118460571","240506892","2"
"1963964406","1987171266","3"
"1987171266","1963964406","3"
"1963964406","2066833720","2"
"2066833720","1963964406","2"
"1963964406","2118460571","3"
"2118460571","1963964406","3"
"1987171266","2066833720","2"
"2066833720","1987171266","2"
"1987171266","2118460571","3"
"2118460571","1987171266","3"
"2066833720","2118460571","2"
"2118460571","2066833720","2"
"2112167796","2132208947","3"
"2132208947","2112167796","3"
"2112167796","2295622209","1"
"2295622209","2112167796","1"
"2112167796","2480456780","2"
"2480456780","2112167796","2"
"2112167796","2632361857","1"
"2632361857","2112167796","1"
"1919621074","2132208947","3"
"2132208947","1919621074","3"
"1919621074","2295622209","1"
"2295622209","1919621074","1"
"1919621074","2311819533","4"
"2311819533","1919621074","4"
"1919621074","2480456780","2"
"2480456780","1919621074","2"
"1919621074","2632361857","1"
"2632361857","1919621074","1"
"1919621074","2687967603","2"
"2687967603","1919621074","2"
"2132208947","2295622209","1"
"2295622209","2132208947","1"
"2132208947","2311819533","3"
"2311819533","2132208947","3"
"2132208947","2480456780","2"
"2480456780","2132208947","2"
"2132208947","2632361857","1"
"2632361857","2132208947","1"
"2132208947","2687967603","2"
"2687967603","2132208947","2"
"2295622209","2311819533","1"
"2311819533","2295622209","1"
"2295622209","2480456780","1"
"2480456780","2295622209","1"
"2295622209","2632361857","1"
"2632361857","2295622209","1"
"2295622209","2687967603","1"
"2687967603","2295622209","1"
"2311819533","2480456780","2"
"2480456780","2311819533","2"
"2311819533","2632361857","1"
"2632361857","2311819533","1"
"2480456780","2632361857","1"
"2632361857","2480456780","1"
"2480456780","2687967603","1"
"2687967603","2480456780","1"
"2632361857","2687967603","1"
"2687967603","2632361857","1"
"2112167796","2983029524","1"
"2983029524","2112167796","1"
"2095616635","2983029524","1"
"2983029524","2095616635","1"
"2311819533","2983029524","1"
"2983029524","2311819533","1"
"2687967603","2983029524","1"
"2983029524","2687967603","1"
"2112167796","2956024223","4"
"2956024223","2112167796","4"
"240506892","401236404","7"
"401236404","240506892","7"
"240506892","1919621074","1"
"1919621074","240506892","1"
"240506892","2105103640","6"
"2105103640","240506892","6"
"240506892","2129161123","5"
"2129161123","240506892","5"
"240506892","2309335715","1"
"2309335715","240506892","1"
"240506892","2956024223","2"
"2956024223","240506892","2"
"401236404","2956024223","4"
"2956024223","401236404","4"
"1919621074","2956024223","2"
"2956024223","1919621074","2"
"2105103640","2956024223","4"
"2956024223","2105103640","4"
"2129161123","2956024223","4"
"2956024223","2129161123","4"
"2309335715","2956024223","1"
"2956024223","2309335715","1"
"2112167796","1494782392","4"
"1494782392","2112167796","4"
"1494782392","1919621074","3"
"1919621074","1494782392","3"
"1494782392","2118460571","2"
"2118460571","1494782392","2"
"1919621074","2118460571","2"
"2118460571","1919621074","2"
"2112167796","2002742946","5"
"2002742946","2112167796","5"
"2112167796","2139913828","3"
"2139913828","2112167796","3"
"2112167796","2505260344","2"
"2505260344","2112167796","2"
"2112167796","2523407221","2"
"2523407221","2112167796","2"
"2112167796","2640620234","1"
"2640620234","2112167796","1"
"2112167796","2980994268","3"
"2980994268","2112167796","3"
"2002742946","2063640528","4"
"2063640528","2002742946","4"
"2002742946","2139913828","2"
"2139913828","2002742946","2"
"2002742946","2505260344","2"
"2505260344","2002742946","2"
"2002742946","2523407221","2"
"2523407221","2002742946","2"
"2002742946","2640620234","1"
"2640620234","2002742946","1"
"2002742946","2980994268","2"
"2980994268","2002742946","2"
"2063640528","2139913828","3"
"2139913828","2063640528","3"
"2063640528","2505260344","2"
"2505260344","2063640528","2"
"2063640528","2523407221","2"
"2523407221","2063640528","2"
"2063640528","2640620234","1"
"2640620234","2063640528","1"
"2063640528","2980994268","3"
"2980994268","2063640528","3"
"2139913828","2505260344","2"
"2505260344","2139913828","2"
"2139913828","2523407221","2"
"2523407221","2139913828","2"
"2139913828","2640620234","1"
"2640620234","2139913828","1"
"2139913828","2980994268","3"
"2980994268","2139913828","3"
"2505260344","2523407221","2"
"2523407221","2505260344","2"
"2505260344","2640620234","1"
"2640620234","2505260344","1"
"2505260344","2980994268","2"
"2980994268","2505260344","2"
"2523407221","2640620234","1"
"2640620234","2523407221","1"
"2523407221","2980994268","2"
"2980994268","2523407221","2"
"2640620234","2980994268","1"
"2980994268","2640620234","1"
"2112167796","69727675","2"
"69727675","2112167796","2"
"2112167796","112513271","3"
"112513271","2112167796","3"
"2112167796","1995409471","2"
"1995409471","2112167796","2"
"2112167796","2006329443","3"
"2006329443","2112167796","3"
"2112167796","2019833327","4"
"2019833327","2112167796","4"
"2112167796","2120728746","2"
"2120728746","2112167796","2"
"2112167796","2134045017","3"
"2134045017","2112167796","3"
"2112167796","2144955011","2"
"2144955011","2112167796","2"
"2112167796","2150704822","2"
"2150704822","2112167796","2"
"2112167796","2188856032","3"
"2188856032","2112167796","3"
"2112167796","2222719672","3"
"2222719672","2112167796","3"
"2112167796","2470739058","3"
"2470739058","2112167796","3"
"2112167796","2479975546","2"
"2479975546","2112167796","2"
"2112167796","2907167763","3"
"2907167763","2112167796","3"
"2112167796","2948263148","7"
"2948263148","2112167796","7"
"2112167796","2986433172","2"
"2986433172","2112167796","2"
"69727675","112513271","2"
"112513271","69727675","2"
"69727675","401236404","2"
"401236404","69727675","2"
"69727675","1995409471","2"
"1995409471","69727675","2"
"69727675","2006329443","2"
"2006329443","69727675","2"
"69727675","2019833327","2"
"2019833327","69727675","2"
"69727675","2105103640","2"
"2105103640","69727675","2"
"69727675","2120728746","2"
"2120728746","69727675","2"
"69727675","2129161123","2"
"2129161123","69727675","2"
"69727675","2134045017","2"
"2134045017","69727675","2"
"69727675","2144955011","2"
"2144955011","69727675","2"
"69727675","2150704822","2"
"2150704822","69727675","2"
"69727675","2188856032","2"
"2188856032","69727675","2"
"69727675","2222719672","1"
"2222719672","69727675","1"
"69727675","2470739058","2"
"2470739058","69727675","2"
"69727675","2479975546","2"
"2479975546","69727675","2"
"69727675","2907167763","2"
"2907167763","69727675","2"
"69727675","2948263148","2"
"2948263148","69727675","2"
"69727675","2956024223","2"
"2956024223","69727675","2"
"69727675","2986433172","1"
"2986433172","69727675","1"
"112513271","401236404","3"
"401236404","112513271","3"
"112513271","1995409471","2"
"1995409471","112513271","2"
"112513271","2006329443","3"
"2006329443","112513271","3"
"112513271","2019833327","3"
"2019833327","112513271","3"
"112513271","2105103640","3"
"2105103640","112513271","3"
"112513271","2120728746","2"
"2120728746","112513271","2"
"112513271","2129161123","3"
"2129161123","112513271","3"
"112513271","2134045017","3"
"2134045017","112513271","3"
"112513271","2144955011","2"
"2144955011","112513271","2"
"112513271","2150704822","2"
"2150704822","112513271","2"
"112513271","2188856032","3"
"2188856032","112513271","3"
"112513271","2222719672","1"
"2222719672","112513271","1"
"112513271","2470739058","3"
"2470739058","112513271","3"
"112513271","2479975546","2"
"2479975546","112513271","2"
"112513271","2907167763","3"
"2907167763","112513271","3"
"112513271","2948263148","2"
"2948263148","112513271","2"
"112513271","2956024223","3"
"2956024223","112513271","3"
"112513271","2986433172","2"
"2986433172","112513271","2"
"401236404","1995409471","2"
"1995409471","401236404","2"
"401236404","2006329443","3"
"2006329443","401236404","3"
"401236404","2019833327","4"
"2019833327","401236404","4"
"401236404","2120728746","2"
"2120728746","401236404","2"
"401236404","2134045017","3"
"2134045017","401236404","3"
"401236404","2144955011","2"
"2144955011","401236404","2"
"401236404","2150704822","2"
"2150704822","401236404","2"
"401236404","2188856032","3"
"2188856032","401236404","3"
"401236404","2222719672","3"
"2222719672","401236404","3"
"401236404","2470739058","3"
"2470739058","401236404","3"
"401236404","2479975546","2"
"2479975546","401236404","2"
"401236404","2907167763","3"
"2907167763","401236404","3"
"401236404","2948263148","7"
"2948263148","401236404","7"
"401236404","2986433172","2"
"2986433172","401236404","2"
"1995409471","2006329443","2"
"2006329443","1995409471","2"
"1995409471","2019833327","2"
"2019833327","1995409471","2"
"1995409471","2105103640","2"
"2105103640","1995409471","2"
"1995409471","2120728746","2"
"2120728746","1995409471","2"
"1995409471","2129161123","2"
"2129161123","1995409471","2"
"1995409471","2134045017","2"
"2134045017","1995409471","2"
"1995409471","2144955011","2"
"2144955011","1995409471","2"
"1995409471","2150704822","2"
"2150704822","1995409471","2"
"1995409471","2188856032","2"
"2188856032","1995409471","2"
"1995409471","2222719672","1"
"2222719672","1995409471","1"
"1995409471","2470739058","2"
"2470739058","1995409471","2"
"1995409471","2479975546","2"
"2479975546","1995409471","2"
"1995409471","2907167763","2"
"2907167763","1995409471","2"
"1995409471","2948263148","2"
"2948263148","1995409471","2"
"1995409471","2956024223","2"
"2956024223","1995409471","2"
"1995409471","2986433172","1"
"2986433172","1995409471","1"
"2006329443","2019833327","3"
"2019833327","2006329443","3"
"2006329443","2105103640","3"
"2105103640","2006329443","3"
"2006329443","2120728746","2"
"2120728746","2006329443","2"
"2006329443","2129161123","3"
"2129161123","2006329443","3"
"2006329443","2134045017","3"
"2134045017","2006329443","3"
"2006329443","2144955011","2"
"2144955011","2006329443","2"
"2006329443","2150704822","2"
"2150704822","2006329443","2"
"2006329443","2188856032","3"
"2188856032","2006329443","3"
"2006329443","2222719672","1"
"2222719672","2006329443","1"
"2006329443","2470739058","3"
"2470739058","2006329443","3"
"2006329443","2479975546","2"
"2479975546","2006329443","2"
"2006329443","2907167763","3"
"2907167763","2006329443","3"
"2006329443","2948263148","2"
"2948263148","2006329443","2"
"2006329443","2956024223","3"
"2956024223","2006329443","3"
"2006329443","2986433172","2"
"2986433172","2006329443","2"
"2019833327","2105103640","3"
"2105103640","2019833327","3"
"2019833327","2120728746","2"
"2120728746","2019833327","2"
"2019833327","2129161123","4"
"2129161123","2019833327","4"
"2019833327","2134045017","3"
"2134045017","2019833327","3"
"2019833327","2144955011","2"
"2144955011","2019833327","2"
"2019833327","2150704822","2"
"2150704822","2019833327","2"
"2019833327","2188856032","3"
"2188856032","2019833327","3"
"2019833327","2222719672","1"
"2222719672","2019833327","1"
"2019833327","2470739058","3"
"2470739058","2019833327","3"
"2019833327","2479975546","2"
"2479975546","2019833327","2"
"2019833327","2907167763","3"
"2907167763","2019833327","3"
"2019833327","2948263148","2"
"2948263148","2019833327","2"
"2019833327","2956024223","3"
"2956024223","2019833327","3"
"2019833327","2986433172","2"
"2986433172","2019833327","2"
"2105103640","2120728746","2"
"2120728746","2105103640","2"
"2105103640","2134045017","3"
"2134045017","2105103640","3"
"2105103640","2144955011","2"
"2144955011","2105103640","2"
"2105103640","2150704822","2"
"2150704822","2105103640","2"
"2105103640","2188856032","3"
"2188856032","2105103640","3"
"2105103640","2222719672","3"
"2222719672","2105103640","3"
"2105103640","2470739058","3"
"2470739058","2105103640","3"
"2105103640","2479975546","2"
"2479975546","2105103640","2"
"2105103640","2907167763","3"
"2907167763","2105103640","3"
"2105103640","2948263148","6"
"2948263148","2105103640","6"
"2105103640","2986433172","2"
"2986433172","2105103640","2"
"2120728746","2129161123","2"
"2129161123","2120728746","2"
"2120728746","2134045017","2"
"2134045017","2120728746","2"
"2120728746","2144955011","2"
"2144955011","2120728746","2"
"2120728746","2150704822","2"
"2150704822","2120728746","2"
"2120728746","2188856032","2"
"2188856032","2120728746","2"
"2120728746","2222719672","1"
"2222719672","2120728746","1"
"2120728746","2470739058","2"
"2470739058","2120728746","2"
"2120728746","2479975546","2"
"2479975546","2120728746","2"
"2120728746","2907167763","2"
"2907167763","2120728746","2"
"2120728746","2948263148","2"
"2948263148","2120728746","2"
"2120728746","2956024223","2"
"2956024223","2120728746","2"
"2120728746","2986433172","1"
"2986433172","2120728746","1"
"2129161123","2134045017","3"
"2134045017","2129161123","3"
"2129161123","2144955011","2"
"2144955011","2129161123","2"
"2129161123","2150704822","2"
"2150704822","2129161123","2"
"2129161123","2188856032","3"
"2188856032","2129161123","3"
"2129161123","2222719672","3"
"2222719672","2129161123","3"
"2129161123","2470739058","3"
"2470739058","2129161123","3"
"2129161123","2479975546","2"
"2479975546","2129161123","2"
"2129161123","2907167763","3"
"2907167763","2129161123","3"
"2129161123","2948263148","5"
"2948263148","2129161123","5"
"2129161123","2986433172","2"
"2986433172","2129161123","2"
"2134045017","2144955011","2"
"2144955011","2134045017","2"
"2134045017","2150704822","2"
"2150704822","2134045017","2"
"2134045017","2188856032","3"
"2188856032","2134045017","3"
"2134045017","2222719672","1"
"2222719672","2134045017","1"
"2134045017","2470739058","3"
"2470739058","2134045017","3"
"2134045017","2479975546","2"
"2479975546","2134045017","2"
"2134045017","2907167763","3"
"2907167763","2134045017","3"
"2134045017","2948263148","2"
"2948263148","2134045017","2"
"2134045017","2956024223","3"
"2956024223","2134045017","3"
"2134045017","2986433172","2"
"2986433172","2134045017","2"
"2144955011","2150704822","2"
"2150704822","2144955011","2"
"2144955011","2188856032","2"
"2188856032","2144955011","2"
"2144955011","2222719672","1"
"2222719672","2144955011","1"
"2144955011","2470739058","2"
"2470739058","2144955011","2"
"2144955011","2479975546","2"
"2479975546","2144955011","2"
"2144955011","2907167763","2"
"2907167763","2144955011","2"
"2144955011","2948263148","2"
"2948263148","2144955011","2"
"2144955011","2956024223","2"
"2956024223","2144955011","2"
"2144955011","2986433172","1"
"2986433172","2144955011","1"
"2150704822","2188856032","2"
"2188856032","2150704822","2"
"2150704822","2222719672","1"
"2222719672","2150704822","1"
"2150704822","2470739058","2"
"2470739058","2150704822","2"
"2150704822","2479975546","2"
"2479975546","2150704822","2"
"2150704822","2907167763","2"
"2907167763","2150704822","2"
"2150704822","2948263148","2"
"2948263148","2150704822","2"
"2150704822","2956024223","2"
"2956024223","2150704822","2"
"2150704822","2986433172","1"
"2986433172","2150704822","1"
"2188856032","2222719672","1"
"2222719672","2188856032","1"
"2188856032","2470739058","3"
"2470739058","2188856032","3"
"2188856032","2479975546","2"
"2479975546","2188856032","2"
"2188856032","2907167763","3"
"2907167763","2188856032","3"
"2188856032","2948263148","2"
"2948263148","2188856032","2"
"2188856032","2956024223","3"
"2956024223","2188856032","3"
"2188856032","2986433172","2"
"2986433172","2188856032","2"
"2222719672","2470739058","1"
"2470739058","2222719672","1"
"2222719672","2479975546","1"
"2479975546","2222719672","1"
"2222719672","2907167763","1"
"2907167763","2222719672","1"
"2222719672","2948263148","2"
"2948263148","2222719672","2"
"2222719672","2956024223","1"
"2956024223","2222719672","1"
"2222719672","2986433172","1"
"2986433172","2222719672","1"
"2470739058","2479975546","2"
"2479975546","2470739058","2"
"2470739058","2907167763","3"
"2907167763","2470739058","3"
"2470739058","2948263148","2"
"2948263148","2470739058","2"
"2470739058","2956024223","3"
"2956024223","2470739058","3"
"2470739058","2986433172","2"
"2986433172","2470739058","2"
"2479975546","2907167763","2"
"2907167763","2479975546","2"
"2479975546","2948263148","2"
"2948263148","2479975546","2"
"2479975546","2956024223","2"
"2956024223","2479975546","2"
"2479975546","2986433172","1"
"2986433172","2479975546","1"
"2907167763","2948263148","2"
"2948263148","2907167763","2"
"2907167763","2956024223","3"
"2956024223","2907167763","3"
"2907167763","2986433172","2"
"2986433172","2907167763","2"
"2948263148","2956024223","2"
"2956024223","2948263148","2"
"2948263148","2986433172","1"
"2986433172","2948263148","1"
"2956024223","2986433172","2"
"2986433172","2956024223","2"
"2112167796","53579654","1"
"53579654","2112167796","1"
"53579654","2002742946","1"
"2002742946","53579654","1"
"2112167796","2122370284","2"
"2122370284","2112167796","2"
"240506892","2122370284","2"
"2122370284","240506892","2"
"401236404","2122370284","2"
"2122370284","401236404","2"
"2105103640","2122370284","2"
"2122370284","2105103640","2"
"2122370284","2129161123","2"
"2129161123","2122370284","2"
"2112167796","2304639312","1"
"2304639312","2112167796","1"
"2112167796","2973318162","1"
"2973318162","2112167796","1"
"2112167796","2973955941","1"
"2973955941","2112167796","1"
"2112167796","2974292038","1"
"2974292038","2112167796","1"
"2112167796","2974614789","1"
"2974614789","2112167796","1"
"2304639312","2311819533","1"
"2311819533","2304639312","1"
"2304639312","2973318162","1"
"2973318162","2304639312","1"
"2304639312","2973955941","1"
"2973955941","2304639312","1"
"2304639312","2974292038","1"
"2974292038","2304639312","1"
"2304639312","2974614789","1"
"2974614789","2304639312","1"
"2311819533","2973318162","1"
"2973318162","2311819533","1"
"2311819533","2973955941","1"
"2973955941","2311819533","1"
"2311819533","2974292038","1"
"2974292038","2311819533","1"
"2311819533","2974614789","1"
"2974614789","2311819533","1"
"2973318162","2973955941","1"
"2973955941","2973318162","1"
"2973318162","2974292038","1"
"2974292038","2973318162","1"
"2973318162","2974614789","1"
"2974614789","2973318162","1"
"2973955941","2974292038","1"
"2974292038","2973955941","1"
"2973955941","2974614789","1"
"2974614789","2973955941","1"
"2974292038","2974614789","1"
"2974614789","2974292038","1"
"2112167796","2227894722","2"
"2227894722","2112167796","2"
"2112167796","2293885788","1"
"2293885788","2112167796","1"
"1919621074","2227894722","2"
"2227894722","1919621074","2"
"1919621074","2293885788","1"
"2293885788","1919621074","1"
"2132208947","2227894722","2"
"2227894722","2132208947","2"
"2132208947","2293885788","1"
"2293885788","2132208947","1"
"2227894722","2293885788","1"
"2293885788","2227894722","1"
"2227894722","2311819533","2"
"2311819533","2227894722","2"
"2227894722","2687967603","1"
"2687967603","2227894722","1"
"2293885788","2311819533","1"
"2311819533","2293885788","1"
"2293885788","2687967603","1"
"2687967603","2293885788","1"
"2112167796","1993169748","1"
"1993169748","2112167796","1"
"2112167796","1994424778","1"
"1994424778","2112167796","1"
"2112167796","2122726738","1"
"2122726738","2112167796","1"
"2112167796","2974770130","1"
"2974770130","2112167796","1"
"1919621074","1993169748","1"
"1993169748","1919621074","1"
"1919621074","1994424778","1"
"1994424778","1919621074","1"
"1919621074","2122726738","1"
"2122726738","1919621074","1"
"1919621074","2974770130","1"
"2974770130","1919621074","1"
"1993169748","1994424778","1"
"1994424778","1993169748","1"
"1993169748","2122726738","1"
"2122726738","1993169748","1"
"1993169748","2132208947","1"
"2132208947","1993169748","1"
"1993169748","2227894722","1"
"2227894722","1993169748","1"
"1993169748","2311819533","1"
"2311819533","1993169748","1"
"1993169748","2480456780","1"
"2480456780","1993169748","1"
"1993169748","2974770130","1"
"2974770130","1993169748","1"
"1994424778","2122726738","1"
"2122726738","1994424778","1"
"1994424778","2132208947","1"
"2132208947","1994424778","1"
"1994424778","2227894722","1"
"2227894722","1994424778","1"
"1994424778","2311819533","1"
"2311819533","1994424778","1"
"1994424778","2480456780","1"
"2480456780","1994424778","1"
"1994424778","2974770130","1"
"2974770130","1994424778","1"
"2122726738","2132208947","1"
"2132208947","2122726738","1"
"2122726738","2227894722","1"
"2227894722","2122726738","1"
"2122726738","2311819533","1"
"2311819533","2122726738","1"
"2122726738","2480456780","1"
"2480456780","2122726738","1"
"2122726738","2974770130","1"
"2974770130","2122726738","1"
"2132208947","2974770130","1"
"2974770130","2132208947","1"
"2227894722","2480456780","1"
"2480456780","2227894722","1"
"2227894722","2974770130","1"
"2974770130","2227894722","1"
"2311819533","2974770130","1"
"2974770130","2311819533","1"
"2480456780","2974770130","1"
"2974770130","2480456780","1"
"2112167796","337295000","3"
"337295000","2112167796","3"
"2112167796","1762973370","3"
"1762973370","2112167796","3"
"2112167796","1967604609","1"
"1967604609","2112167796","1"
"2112167796","2038748030","7"
"2038748030","2112167796","7"
"2112167796","2104019359","1"
"2104019359","2112167796","1"
"2112167796","2180704424","1"
"2180704424","2112167796","1"
"2112167796","2256441069","2"
"2256441069","2112167796","2"
"2112167796","2290857963","3"
"2290857963","2112167796","3"
"2112167796","2304839962","1"
"2304839962","2112167796","1"
"240506892","337295000","2"
"337295000","240506892","2"
"240506892","1762973370","3"
"1762973370","240506892","3"
"240506892","1967604609","1"
"1967604609","240506892","1"
"240506892","2009007797","3"
"2009007797","240506892","3"
"240506892","2038748030","1"
"2038748030","240506892","1"
"240506892","2104019359","1"
"2104019359","240506892","1"
"240506892","2180704424","1"
"2180704424","240506892","1"
"240506892","2222719672","1"
"2222719672","240506892","1"
"240506892","2256441069","2"
"2256441069","240506892","2"
"240506892","2290857963","3"
"2290857963","240506892","3"
"240506892","2304839962","1"
"2304839962","240506892","1"
"240506892","2948263148","3"
"2948263148","240506892","3"
"337295000","401236404","2"
"401236404","337295000","2"
"337295000","1762973370","1"
"1762973370","337295000","1"
"337295000","1967604609","1"
"1967604609","337295000","1"
"337295000","2009007797","2"
"2009007797","337295000","2"
"337295000","2038748030","1"
"2038748030","337295000","1"
"337295000","2104019359","1"
"2104019359","337295000","1"
"337295000","2105103640","3"
"2105103640","337295000","3"
"337295000","2122370284","1"
"2122370284","337295000","1"
"337295000","2129161123","2"
"2129161123","337295000","2"
"337295000","2180704424","1"
"2180704424","337295000","1"
"337295000","2222719672","1"
"2222719672","337295000","1"
"337295000","2256441069","1"
"2256441069","337295000","1"
"337295000","2290857963","2"
"2290857963","337295000","2"
"337295000","2304839962","1"
"2304839962","337295000","1"
"337295000","2948263148","2"
"2948263148","337295000","2"
"401236404","1762973370","3"
"1762973370","401236404","3"
"401236404","1967604609","1"
"1967604609","401236404","1"
"401236404","2038748030","7"
"2038748030","401236404","7"
"401236404","2104019359","1"
"2104019359","401236404","1"
"401236404","2180704424","1"
"2180704424","401236404","1"
"401236404","2256441069","2"
"2256441069","401236404","2"
"401236404","2290857963","3"
"2290857963","401236404","3"
"401236404","2304839962","1"
"2304839962","401236404","1"
"1762973370","1967604609","1"
"1967604609","1762973370","1"
"1762973370","2009007797","3"
"2009007797","1762973370","3"
"1762973370","2038748030","1"
"2038748030","1762973370","1"
"1762973370","2104019359","1"
"2104019359","1762973370","1"
"1762973370","2105103640","3"
"2105103640","1762973370","3"
"1762973370","2122370284","1"
"2122370284","1762973370","1"
"1762973370","2129161123","3"
"2129161123","1762973370","3"
"1762973370","2180704424","1"
"2180704424","1762973370","1"
"1762973370","2222719672","1"
"2222719672","1762973370","1"
"1762973370","2256441069","2"
"2256441069","1762973370","2"
"1762973370","2290857963","2"
"2290857963","1762973370","2"
"1762973370","2304839962","1"
"2304839962","1762973370","1"
"1762973370","2948263148","2"
"2948263148","1762973370","2"
"1967604609","2009007797","1"
"2009007797","1967604609","1"
"1967604609","2038748030","1"
"2038748030","1967604609","1"
"1967604609","2104019359","1"
"2104019359","1967604609","1"
"1967604609","2105103640","1"
"2105103640","1967604609","1"
"1967604609","2122370284","1"
"2122370284","1967604609","1"
"1967604609","2129161123","1"
"2129161123","1967604609","1"
"1967604609","2180704424","1"
"2180704424","1967604609","1"
"1967604609","2222719672","1"
"2222719672","1967604609","1"
"1967604609","2256441069","1"
"2256441069","1967604609","1"
"1967604609","2290857963","1"
"2290857963","1967604609","1"
"1967604609","2304839962","1"
"2304839962","1967604609","1"
"1967604609","2948263148","1"
"2948263148","1967604609","1"
"2009007797","2038748030","1"
"2038748030","2009007797","1"
"2009007797","2104019359","1"
"2104019359","2009007797","1"
"2009007797","2122370284","1"
"2122370284","2009007797","1"
"2009007797","2180704424","1"
"2180704424","2009007797","1"
"2009007797","2222719672","1"
"2222719672","2009007797","1"
"2009007797","2256441069","2"
"2256441069","2009007797","2"
"2009007797","2290857963","2"
"2290857963","2009007797","2"
"2009007797","2304839962","1"
"2304839962","2009007797","1"
"2009007797","2948263148","2"
"2948263148","2009007797","2"
"2038748030","2104019359","1"
"2104019359","2038748030","1"
"2038748030","2105103640","7"
"2105103640","2038748030","7"
"2038748030","2122370284","1"
"2122370284","2038748030","1"
"2038748030","2129161123","7"
"2129161123","2038748030","7"
"2038748030","2180704424","1"
"2180704424","2038748030","1"
"2038748030","2222719672","2"
"2222719672","2038748030","2"
"2038748030","2256441069","1"
"2256441069","2038748030","1"
"2038748030","2290857963","1"
"2290857963","2038748030","1"
"2038748030","2304839962","1"
"2304839962","2038748030","1"
"2038748030","2948263148","2"
"2948263148","2038748030","2"
"2104019359","2105103640","1"
"2105103640","2104019359","1"
"2104019359","2122370284","1"
"2122370284","2104019359","1"
"2104019359","2129161123","1"
"2129161123","2104019359","1"
"2104019359","2180704424","1"
"2180704424","2104019359","1"
"2104019359","2222719672","1"
"2222719672","2104019359","1"
"2104019359","2256441069","1"
"2256441069","2104019359","1"
"2104019359","2290857963","1"
"2290857963","2104019359","1"
"2104019359","2304839962","1"
"2304839962","2104019359","1"
"2104019359","2948263148","1"
"2948263148","2104019359","1"
"2105103640","2180704424","1"
"2180704424","2105103640","1"
"2105103640","2256441069","2"
"2256441069","2105103640","2"
"2105103640","2290857963","3"
"2290857963","2105103640","3"
"2105103640","2304839962","1"
"2304839962","2105103640","1"
"2122370284","2180704424","1"
"2180704424","2122370284","1"
"2122370284","2222719672","1"
"2222719672","2122370284","1"
"2122370284","2256441069","1"
"2256441069","2122370284","1"
"2122370284","2290857963","1"
"2290857963","2122370284","1"
"2122370284","2304839962","1"
"2304839962","2122370284","1"
"2122370284","2948263148","1"
"2948263148","2122370284","1"
"2129161123","2180704424","1"
"2180704424","2129161123","1"
"2129161123","2256441069","2"
"2256441069","2129161123","2"
"2129161123","2290857963","2"
"2290857963","2129161123","2"
"2129161123","2304839962","1"
"2304839962","2129161123","1"
"2180704424","2222719672","1"
"2222719672","2180704424","1"
"2180704424","2256441069","1"
"2256441069","2180704424","1"
"2180704424","2290857963","1"
"2290857963","2180704424","1"
"2180704424","2304839962","1"
"2304839962","2180704424","1"
"2180704424","2948263148","1"
"2948263148","2180704424","1"
"2222719672","2256441069","1"
"2256441069","2222719672","1"
"2222719672","2290857963","1"
"2290857963","2222719672","1"
"2222719672","2304839962","1"
"2304839962","2222719672","1"
"2256441069","2290857963","1"
"2290857963","2256441069","1"
"2256441069","2304839962","1"
"2304839962","2256441069","1"
"2256441069","2948263148","2"
"2948263148","2256441069","2"
"2290857963","2304839962","1"
"2304839962","2290857963","1"
"2290857963","2948263148","2"
"2948263148","2290857963","2"
"2304839962","2948263148","1"
"2948263148","2304839962","1"
"2112167796","200092699","1"
"200092699","2112167796","1"
"2112167796","2147385210","1"
"2147385210","2112167796","1"
"2112167796","2282895076","1"
"2282895076","2112167796","1"
"200092699","2147385210","1"
"2147385210","200092699","1"
"200092699","2282895076","1"
"2282895076","200092699","1"
"2147385210","2282895076","1"
"2282895076","2147385210","1"
"2112167796","2101615259","2"
"2101615259","2112167796","2"
"2112167796","2406940414","1"
"2406940414","2112167796","1"
"2112167796","2558140398","1"
"2558140398","2112167796","1"
"1963964406","2101615259","2"
"2101615259","1963964406","2"
"1963964406","2406940414","1"
"2406940414","1963964406","1"
"1963964406","2558140398","1"
"2558140398","1963964406","1"
"1987171266","2101615259","2"
"2101615259","1987171266","2"
"1987171266","2406940414","1"
"2406940414","1987171266","1"
"1987171266","2558140398","1"
"2558140398","1987171266","1"
"2101615259","2118460571","2"
"2118460571","2101615259","2"
"2101615259","2406940414","1"
"2406940414","2101615259","1"
"2101615259","2558140398","1"
"2558140398","2101615259","1"
"2118460571","2406940414","1"
"2406940414","2118460571","1"
"2118460571","2558140398","1"
"2558140398","2118460571","1"
"2406940414","2558140398","1"
"2558140398","2406940414","1"
"2112167796","2165531066","6"
"2165531066","2112167796","6"
"2112167796","2223738977","1"
"2223738977","2112167796","1"
"401236404","2223738977","1"
"2223738977","401236404","1"
"1963964406","2223738977","1"
"2223738977","1963964406","1"
"2005619919","2223738977","1"
"2223738977","2005619919","1"
"2213038480","2223738977","1"
"2223738977","2213038480","1"
"2112167796","11500925","1"
"11500925","2112167796","1"
"2112167796","287372923","1"
"287372923","2112167796","1"
"2112167796","2070167002","1"
"2070167002","2112167796","1"
"2112167796","2136578401","1"
"2136578401","2112167796","1"
"2112167796","2275993789","1"
"2275993789","2112167796","1"
"11500925","287372923","1"
"287372923","11500925","1"
"11500925","2070167002","1"
"2070167002","11500925","1"
"11500925","2136578401","1"
"2136578401","11500925","1"
"11500925","2165531066","1"
"2165531066","11500925","1"
"11500925","2275993789","1"
"2275993789","11500925","1"
"11500925","2311819533","1"
"2311819533","11500925","1"
"287372923","2070167002","1"
"2070167002","287372923","1"
"287372923","2136578401","1"
"2136578401","287372923","1"
"287372923","2165531066","1"
"2165531066","287372923","1"
"287372923","2275993789","1"
"2275993789","287372923","1"
"287372923","2311819533","1"
"2311819533","287372923","1"
"2070167002","2136578401","1"
"2136578401","2070167002","1"
"2070167002","2165531066","1"
"2165531066","2070167002","1"
"2070167002","2275993789","1"
"2275993789","2070167002","1"
"2070167002","2311819533","1"
"2311819533","2070167002","1"
"2136578401","2165531066","1"
"2165531066","2136578401","1"
"2136578401","2275993789","1"
"2275993789","2136578401","1"
"2136578401","2311819533","1"
"2311819533","2136578401","1"
"2165531066","2275993789","1"
"2275993789","2165531066","1"
"2165531066","2311819533","2"
"2311819533","2165531066","2"
"2275993789","2311819533","1"
"2311819533","2275993789","1"
"401236404","1494782392","1"
"1494782392","401236404","1"
"401236404","2118460571","2"
"2118460571","401236404","2"
"2112167796","2092733845","1"
"2092733845","2112167796","1"
"2112167796","2242617642","1"
"2242617642","2112167796","1"
"1494782392","2092733845","1"
"2092733845","1494782392","1"
"1494782392","2129161123","2"
"2129161123","1494782392","2"
"1494782392","2165531066","2"
"2165531066","1494782392","2"
"1494782392","2242617642","1"
"2242617642","1494782392","1"
"1494782392","2311819533","1"
"2311819533","1494782392","1"
"1919621074","2092733845","1"
"2092733845","1919621074","1"
"1919621074","2165531066","1"
"2165531066","1919621074","1"
"1919621074","2242617642","1"
"2242617642","1919621074","1"
"2092733845","2129161123","1"
"2129161123","2092733845","1"
"2092733845","2165531066","1"
"2165531066","2092733845","1"
"2092733845","2242617642","1"
"2242617642","2092733845","1"
"2092733845","2311819533","1"
"2311819533","2092733845","1"
"2129161123","2165531066","3"
"2165531066","2129161123","3"
"2129161123","2242617642","1"
"2242617642","2129161123","1"
"2129161123","2311819533","1"
"2311819533","2129161123","1"
"2165531066","2242617642","1"
"2242617642","2165531066","1"
"2242617642","2311819533","1"
"2311819533","2242617642","1"
"2112167796","1979791317","1"
"1979791317","2112167796","1"
"2112167796","2128073122","1"
"2128073122","2112167796","1"
"1979791317","2128073122","1"
"2128073122","1979791317","1"
"1979791317","2165531066","1"
"2165531066","1979791317","1"
"2128073122","2165531066","1"
"2165531066","2128073122","1"
"2112167796","2307556295","2"
"2307556295","2112167796","2"
"1186758707","2307556295","1"
"2307556295","1186758707","1"
"1963964406","2307556295","1"
"2307556295","1963964406","1"
"2118023846","2307556295","1"
"2307556295","2118023846","1"
"2112167796","2250370833","1"
"2250370833","2112167796","1"
"2129161123","2250370833","1"
"2250370833","2129161123","1"
"2165531066","2250370833","1"
"2250370833","2165531066","1"
"2112167796","2183997462","2"
"2183997462","2112167796","2"
"69727675","1919621074","1"
"1919621074","69727675","1"
"69727675","2183997462","1"
"2183997462","69727675","1"
"112513271","1919621074","1"
"1919621074","112513271","1"
"112513271","2183997462","1"
"2183997462","112513271","1"
"401236404","2183997462","2"
"2183997462","401236404","2"
"1919621074","1995409471","1"
"1995409471","1919621074","1"
"1919621074","2006329443","1"
"2006329443","1919621074","1"
"1919621074","2019833327","1"
"2019833327","1919621074","1"
"1919621074","2120728746","1"
"2120728746","1919621074","1"
"1919621074","2134045017","1"
"2134045017","1919621074","1"
"1919621074","2144955011","1"
"2144955011","1919621074","1"
"1919621074","2150704822","1"
"2150704822","1919621074","1"
"1919621074","2183997462","1"
"2183997462","1919621074","1"
"1919621074","2188856032","1"
"2188856032","1919621074","1"
"1919621074","2470739058","1"
"2470739058","1919621074","1"
"1919621074","2479975546","1"
"2479975546","1919621074","1"
"1919621074","2907167763","1"
"2907167763","1919621074","1"
"1919621074","2948263148","1"
"2948263148","1919621074","1"
"1995409471","2183997462","1"
"2183997462","1995409471","1"
"2006329443","2183997462","1"
"2183997462","2006329443","1"
"2019833327","2183997462","1"
"2183997462","2019833327","1"
"2105103640","2183997462","1"
"2183997462","2105103640","1"
"2120728746","2183997462","1"
"2183997462","2120728746","1"
"2129161123","2183997462","1"
"2183997462","2129161123","1"
"2134045017","2183997462","1"
"2183997462","2134045017","1"
"2144955011","2183997462","1"
"2183997462","2144955011","1"
"2150704822","2183997462","1"
"2183997462","2150704822","1"
"2183997462","2188856032","1"
"2188856032","2183997462","1"
"2183997462","2470739058","1"
"2470739058","2183997462","1"
"2183997462","2479975546","1"
"2479975546","2183997462","1"
"2183997462","2907167763","1"
"2907167763","2183997462","1"
"2183997462","2948263148","2"
"2948263148","2183997462","2"
"2183997462","2956024223","1"
"2956024223","2183997462","1"
"2112167796","2651273329","1"
"2651273329","2112167796","1"
"2095616635","2307556295","1"
"2307556295","2095616635","1"
"2095616635","2651273329","1"
"2651273329","2095616635","1"
"2251660241","2307556295","1"
"2307556295","2251660241","1"
"2251660241","2651273329","1"
"2651273329","2251660241","1"
"2307556295","2311819533","1"
"2311819533","2307556295","1"
"2307556295","2651273329","1"
"2651273329","2307556295","1"
"2311819533","2651273329","1"
"2651273329","2311819533","1"
"240506892","2101615259","1"
"2101615259","240506892","1"
"401236404","1987171266","1"
"1987171266","401236404","1"
"401236404","2066833720","1"
"2066833720","401236404","1"
"401236404","2101615259","1"
"2101615259","401236404","1"
"2066833720","2101615259","1"
"2101615259","2066833720","1"
"2112167796","2231745602","1"
"2231745602","2112167796","1"
"2112167796","2958491970","1"
"2958491970","2112167796","1"
"112513271","240506892","1"
"240506892","112513271","1"
"112513271","1762973370","1"
"1762973370","112513271","1"
"112513271","2009007797","1"
"2009007797","112513271","1"
"112513271","2231745602","1"
"2231745602","112513271","1"
"112513271","2290857963","1"
"2290857963","112513271","1"
"112513271","2958491970","1"
"2958491970","112513271","1"
"240506892","2006329443","1"
"2006329443","240506892","1"
"240506892","2019833327","1"
"2019833327","240506892","1"
"240506892","2134045017","1"
"2134045017","240506892","1"
"240506892","2188856032","1"
"2188856032","240506892","1"
"240506892","2231745602","1"
"2231745602","240506892","1"
"240506892","2470739058","1"
"2470739058","240506892","1"
"240506892","2907167763","1"
"2907167763","240506892","1"
"240506892","2958491970","1"
"2958491970","240506892","1"
"240506892","2986433172","1"
"2986433172","240506892","1"
"401236404","2231745602","1"
"2231745602","401236404","1"
"401236404","2958491970","1"
"2958491970","401236404","1"
"1762973370","2006329443","1"
"2006329443","1762973370","1"
"1762973370","2019833327","1"
"2019833327","1762973370","1"
"1762973370","2134045017","1"
"2134045017","1762973370","1"
"1762973370","2188856032","1"
"2188856032","1762973370","1"
"1762973370","2231745602","1"
"2231745602","1762973370","1"
"1762973370","2470739058","1"
"2470739058","1762973370","1"
"1762973370","2907167763","1"
"2907167763","1762973370","1"
"1762973370","2956024223","1"
"2956024223","1762973370","1"
"1762973370","2958491970","1"
"2958491970","1762973370","1"
"1762973370","2986433172","1"
"2986433172","1762973370","1"
"2006329443","2009007797","1"
"2009007797","2006329443","1"
"2006329443","2231745602","1"
"2231745602","2006329443","1"
"2006329443","2290857963","1"
"2290857963","2006329443","1"
"2006329443","2958491970","1"
"2958491970","2006329443","1"
"2009007797","2019833327","1"
"2019833327","2009007797","1"
"2009007797","2134045017","1"
"2134045017","2009007797","1"
"2009007797","2188856032","1"
"2188856032","2009007797","1"
"2009007797","2231745602","1"
"2231745602","2009007797","1"
"2009007797","2470739058","1"
"2470739058","2009007797","1"
"2009007797","2907167763","1"
"2907167763","2009007797","1"
"2009007797","2956024223","1"
"2956024223","2009007797","1"
"2009007797","2958491970","1"
"2958491970","2009007797","1"
"2009007797","2986433172","1"
"2986433172","2009007797","1"
"2019833327","2231745602","1"
"2231745602","2019833327","1"
"2019833327","2290857963","1"
"2290857963","2019833327","1"
"2019833327","2958491970","1"
"2958491970","2019833327","1"
"2105103640","2231745602","1"
"2231745602","2105103640","1"
"2105103640","2958491970","1"
"2958491970","2105103640","1"
"2129161123","2231745602","1"
"2231745602","2129161123","1"
"2129161123","2958491970","1"
"2958491970","2129161123","1"
"2134045017","2231745602","1"
"2231745602","2134045017","1"
"2134045017","2290857963","1"
"2290857963","2134045017","1"
"2134045017","2958491970","1"
"2958491970","2134045017","1"
"2188856032","2231745602","1"
"2231745602","2188856032","1"
"2188856032","2290857963","1"
"2290857963","2188856032","1"
"2188856032","2958491970","1"
"2958491970","2188856032","1"
"2231745602","2290857963","1"
"2290857963","2231745602","1"
"2231745602","2470739058","1"
"2470739058","2231745602","1"
"2231745602","2907167763","1"
"2907167763","2231745602","1"
"2231745602","2956024223","1"
"2956024223","2231745602","1"
"2231745602","2958491970","1"
"2958491970","2231745602","1"
"2231745602","2986433172","1"
"2986433172","2231745602","1"
"2290857963","2470739058","1"
"2470739058","2290857963","1"
"2290857963","2907167763","1"
"2907167763","2290857963","1"
"2290857963","2956024223","1"
"2956024223","2290857963","1"
"2290857963","2958491970","1"
"2958491970","2290857963","1"
"2290857963","2986433172","1"
"2986433172","2290857963","1"
"2470739058","2958491970","1"
"2958491970","2470739058","1"
"2907167763","2958491970","1"
"2958491970","2907167763","1"
"2956024223","2958491970","1"
"2958491970","2956024223","1"
"2958491970","2986433172","1"
"2986433172","2958491970","1"
"2112167796","2134726333","1"
"2134726333","2112167796","1"
"2112167796","2137247962","1"
"2137247962","2112167796","1"
"2112167796","2763131346","1"
"2763131346","2112167796","1"
"2112167796","2949605095","1"
"2949605095","2112167796","1"
"2002742946","2134726333","1"
"2134726333","2002742946","1"
"2002742946","2137247962","1"
"2137247962","2002742946","1"
"2002742946","2763131346","1"
"2763131346","2002742946","1"
"2002742946","2949605095","1"
"2949605095","2002742946","1"
"2063640528","2134726333","1"
"2134726333","2063640528","1"
"2063640528","2137247962","1"
"2137247962","2063640528","1"
"2063640528","2763131346","1"
"2763131346","2063640528","1"
"2063640528","2949605095","1"
"2949605095","2063640528","1"
"2134726333","2137247962","1"
"2137247962","2134726333","1"
"2134726333","2139913828","1"
"2139913828","2134726333","1"
"2134726333","2505260344","1"
"2505260344","2134726333","1"
"2134726333","2523407221","1"
"2523407221","2134726333","1"
"2134726333","2763131346","1"
"2763131346","2134726333","1"
"2134726333","2949605095","1"
"2949605095","2134726333","1"
"2134726333","2980994268","1"
"2980994268","2134726333","1"
"2137247962","2139913828","1"
"2139913828","2137247962","1"
"2137247962","2505260344","1"
"2505260344","2137247962","1"
"2137247962","2523407221","1"
"2523407221","2137247962","1"
"2137247962","2763131346","1"
"2763131346","2137247962","1"
"2137247962","2949605095","1"
"2949605095","2137247962","1"
"2137247962","2980994268","1"
"2980994268","2137247962","1"
"2139913828","2763131346","1"
"2763131346","2139913828","1"
"2139913828","2949605095","1"
"2949605095","2139913828","1"
"2505260344","2763131346","1"
"2763131346","2505260344","1"
"2505260344","2949605095","1"
"2949605095","2505260344","1"
"2523407221","2763131346","1"
"2763131346","2523407221","1"
"2523407221","2949605095","1"
"2949605095","2523407221","1"
"2763131346","2949605095","1"
"2949605095","2763131346","1"
"2763131346","2980994268","1"
"2980994268","2763131346","1"
"2949605095","2980994268","1"
"2980994268","2949605095","1"
"2112167796","2147969462","1"
"2147969462","2112167796","1"
"401236404","2147969462","1"
"2147969462","401236404","1"
"2147969462","2183997462","1"
"2183997462","2147969462","1"
"2147969462","2948263148","1"
"2948263148","2147969462","1"
"2112167796","2408241561","1"
"2408241561","2112167796","1"
"2009007797","2408241561","1"
"2408241561","2009007797","1"
"2112167796","2531131570","1"
"2531131570","2112167796","1"
"1494782392","2531131570","1"
"2531131570","1494782392","1"
"2129161123","2531131570","1"
"2531131570","2129161123","1"
"2165531066","2531131570","1"
"2531131570","2165531066","1"
"401236404","1186758707","1"
"1186758707","401236404","1"
"401236404","2118023846","1"
"2118023846","401236404","1"
"2112167796","2010853274","1"
"2010853274","2112167796","1"
"401236404","2010853274","1"
"2010853274","401236404","1"
"2010853274","2019833327","1"
"2019833327","2010853274","1"
"2010853274","2129161123","1"
"2129161123","2010853274","1"
"2112167796","473787648","3"
"473787648","2112167796","3"
"2112167796","2026396360","2"
"2026396360","2112167796","2"
"2112167796","2129760627","4"
"2129760627","2112167796","4"
"2112167796","2411984561","6"
"2411984561","2112167796","6"
"2112167796","2488054410","2"
"2488054410","2112167796","2"
"2112167796","2598810988","1"
"2598810988","2112167796","1"
"401236404","473787648","3"
"473787648","401236404","3"
"401236404","2026396360","2"
"2026396360","401236404","2"
"401236404","2129760627","4"
"2129760627","401236404","4"
"401236404","2411984561","6"
"2411984561","401236404","6"
"401236404","2488054410","2"
"2488054410","401236404","2"
"401236404","2598810988","1"
"2598810988","401236404","1"
"473787648","2026396360","2"
"2026396360","473787648","2"
"473787648","2038748030","3"
"2038748030","473787648","3"
"473787648","2105103640","3"
"2105103640","473787648","3"
"473787648","2129161123","3"
"2129161123","473787648","3"
"473787648","2129760627","3"
"2129760627","473787648","3"
"473787648","2213038480","3"
"2213038480","473787648","3"
"473787648","2222719672","1"
"2222719672","473787648","1"
"473787648","2411984561","3"
"2411984561","473787648","3"
"473787648","2488054410","2"
"2488054410","473787648","2"
"473787648","2598810988","1"
"2598810988","473787648","1"
"2026396360","2038748030","2"
"2038748030","2026396360","2"
"2026396360","2105103640","2"
"2105103640","2026396360","2"
"2026396360","2129161123","2"
"2129161123","2026396360","2"
"2026396360","2129760627","2"
"2129760627","2026396360","2"
"2026396360","2213038480","2"
"2213038480","2026396360","2"
"2026396360","2222719672","1"
"2222719672","2026396360","1"
"2026396360","2411984561","2"
"2411984561","2026396360","2"
"2026396360","2488054410","2"
"2488054410","2026396360","2"
"2026396360","2598810988","1"
"2598810988","2026396360","1"
"2038748030","2129760627","4"
"2129760627","2038748030","4"
"2038748030","2213038480","4"
"2213038480","2038748030","4"
"2038748030","2411984561","6"
"2411984561","2038748030","6"
"2038748030","2488054410","2"
"2488054410","2038748030","2"
"2038748030","2598810988","1"
"2598810988","2038748030","1"
"2105103640","2129760627","4"
"2129760627","2105103640","4"
"2105103640","2213038480","4"
"2213038480","2105103640","4"
"2105103640","2411984561","6"
"2411984561","2105103640","6"
"2105103640","2488054410","2"
"2488054410","2105103640","2"
"2105103640","2598810988","1"
"2598810988","2105103640","1"
"2129161123","2129760627","4"
"2129760627","2129161123","4"
"2129161123","2213038480","4"
"2213038480","2129161123","4"
"2129161123","2411984561","6"
"2411984561","2129161123","6"
"2129161123","2488054410","2"
"2488054410","2129161123","2"
"2129161123","2598810988","1"
"2598810988","2129161123","1"
"2129760627","2213038480","4"
"2213038480","2129760627","4"
"2129760627","2222719672","1"
"2222719672","2129760627","1"
"2129760627","2411984561","4"
"2411984561","2129760627","4"
"2129760627","2488054410","2"
"2488054410","2129760627","2"
"2129760627","2598810988","1"
"2598810988","2129760627","1"
"2213038480","2222719672","1"
"2222719672","2213038480","1"
"2213038480","2411984561","4"
"2411984561","2213038480","4"
"2213038480","2488054410","2"
"2488054410","2213038480","2"
"2213038480","2598810988","1"
"2598810988","2213038480","1"
"2222719672","2411984561","1"
"2411984561","2222719672","1"
"2222719672","2488054410","1"
"2488054410","2222719672","1"
"2222719672","2598810988","1"
"2598810988","2222719672","1"
"2411984561","2488054410","2"
"2488054410","2411984561","2"
"2411984561","2598810988","1"
"2598810988","2411984561","1"
"2488054410","2598810988","1"
"2598810988","2488054410","1"
"2112167796","2409027963","1"
"2409027963","2112167796","1"
"2112167796","2411391591","1"
"2411391591","2112167796","1"
"240506892","2409027963","1"
"2409027963","240506892","1"
"240506892","2411391591","1"
"2411391591","240506892","1"
"337295000","2409027963","1"
"2409027963","337295000","1"
"337295000","2411391591","1"
"2411391591","337295000","1"
"401236404","2409027963","1"
"2409027963","401236404","1"
"401236404","2411391591","1"
"2411391591","401236404","1"
"2105103640","2409027963","1"
"2409027963","2105103640","1"
"2105103640","2411391591","1"
"2411391591","2105103640","1"
"2290857963","2409027963","1"
"2409027963","2290857963","1"
"2290857963","2411391591","1"
"2411391591","2290857963","1"
"2409027963","2411391591","1"
"2411391591","2409027963","1"
"2409027963","2948263148","1"
"2948263148","2409027963","1"
"2411391591","2948263148","1"
"2948263148","2411391591","1"
"2112167796","2257923124","2"
"2257923124","2112167796","2"
"2112167796","2290747941","2"
"2290747941","2112167796","2"
"401236404","2257923124","2"
"2257923124","401236404","2"
"401236404","2290747941","2"
"2290747941","401236404","2"
"2038748030","2257923124","2"
"2257923124","2038748030","2"
"2038748030","2290747941","2"
"2290747941","2038748030","2"
"2105103640","2257923124","2"
"2257923124","2105103640","2"
"2105103640","2290747941","2"
"2290747941","2105103640","2"
"2129161123","2257923124","2"
"2257923124","2129161123","2"
"2129161123","2290747941","2"
"2290747941","2129161123","2"
"2257923124","2290747941","2"
"2290747941","2257923124","2"
"2257923124","2411984561","2"
"2411984561","2257923124","2"
"2257923124","2948263148","1"
"2948263148","2257923124","1"
"2290747941","2411984561","2"
"2411984561","2290747941","2"
"2290747941","2948263148","1"
"2948263148","2290747941","1"
"2411984561","2948263148","1"
"2948263148","2411984561","1"
"2112167796","2589302337","1"
"2589302337","2112167796","1"
"401236404","2589302337","1"
"2589302337","401236404","1"
"2038748030","2589302337","1"
"2589302337","2038748030","1"
"2105103640","2589302337","1"
"2589302337","2105103640","1"
"2129161123","2589302337","1"
"2589302337","2129161123","1"
"2257923124","2589302337","1"
"2589302337","2257923124","1"
"2290747941","2589302337","1"
"2589302337","2290747941","1"
"2411984561","2589302337","1"
"2589302337","2411984561","1"
"2112167796","2070253555","3"
"2070253555","2112167796","3"
"2112167796","2103910039","1"
"2103910039","2112167796","1"
"2112167796","2167788544","3"
"2167788544","2112167796","3"
"2112167796","2583920446","1"
"2583920446","2112167796","1"
"2112167796","2633999632","2"
"2633999632","2112167796","2"
"401236404","2070253555","3"
"2070253555","401236404","3"
"401236404","2103910039","1"
"2103910039","401236404","1"
"401236404","2167788544","3"
"2167788544","401236404","3"
"401236404","2583920446","1"
"2583920446","401236404","1"
"401236404","2633999632","2"
"2633999632","401236404","2"
"473787648","2070253555","2"
"2070253555","473787648","2"
"473787648","2103910039","1"
"2103910039","473787648","1"
"473787648","2167788544","2"
"2167788544","473787648","2"
"473787648","2583920446","1"
"2583920446","473787648","1"
"473787648","2633999632","2"
"2633999632","473787648","2"
"2026396360","2070253555","1"
"2070253555","2026396360","1"
"2026396360","2103910039","1"
"2103910039","2026396360","1"
"2026396360","2167788544","1"
"2167788544","2026396360","1"
"2026396360","2583920446","1"
"2583920446","2026396360","1"
"2026396360","2633999632","1"
"2633999632","2026396360","1"
"2038748030","2070253555","3"
"2070253555","2038748030","3"
"2038748030","2103910039","1"
"2103910039","2038748030","1"
"2038748030","2167788544","3"
"2167788544","2038748030","3"
"2038748030","2583920446","1"
"2583920446","2038748030","1"
"2038748030","2633999632","2"
"2633999632","2038748030","2"
"2070253555","2103910039","1"
"2103910039","2070253555","1"
"2070253555","2105103640","3"
"2105103640","2070253555","3"
"2070253555","2129161123","3"
"2129161123","2070253555","3"
"2070253555","2129760627","3"
"2129760627","2070253555","3"
"2070253555","2167788544","3"
"2167788544","2070253555","3"
"2070253555","2213038480","3"
"2213038480","2070253555","3"
"2070253555","2411984561","3"
"2411984561","2070253555","3"
"2070253555","2488054410","1"
"2488054410","2070253555","1"
"2070253555","2583920446","1"
"2583920446","2070253555","1"
"2070253555","2633999632","2"
"2633999632","2070253555","2"
"2103910039","2105103640","1"
"2105103640","2103910039","1"
"2103910039","2129161123","1"
"2129161123","2103910039","1"
"2103910039","2129760627","1"
"2129760627","2103910039","1"
"2103910039","2167788544","1"
"2167788544","2103910039","1"
"2103910039","2213038480","1"
"2213038480","2103910039","1"
"2103910039","2411984561","1"
"2411984561","2103910039","1"
"2103910039","2488054410","1"
"2488054410","2103910039","1"
"2103910039","2583920446","1"
"2583920446","2103910039","1"
"2103910039","2633999632","1"
"2633999632","2103910039","1"
"2105103640","2167788544","3"
"2167788544","2105103640","3"
"2105103640","2583920446","1"
"2583920446","2105103640","1"
"2105103640","2633999632","2"
"2633999632","2105103640","2"
"2129161123","2167788544","3"
"2167788544","2129161123","3"
"2129161123","2583920446","1"
"2583920446","2129161123","1"
"2129161123","2633999632","2"
"2633999632","2129161123","2"
"2129760627","2167788544","3"
"2167788544","2129760627","3"
"2129760627","2583920446","1"
"2583920446","2129760627","1"
"2129760627","2633999632","2"
"2633999632","2129760627","2"
"2167788544","2213038480","3"
"2213038480","2167788544","3"
"2167788544","2411984561","3"
"2411984561","2167788544","3"
"2167788544","2488054410","1"
"2488054410","2167788544","1"
"2167788544","2583920446","1"
"2583920446","2167788544","1"
"2167788544","2633999632","2"
"2633999632","2167788544","2"
"2213038480","2583920446","1"
"2583920446","2213038480","1"
"2213038480","2633999632","2"
"2633999632","2213038480","2"
"2411984561","2583920446","1"
"2583920446","2411984561","1"
"2411984561","2633999632","2"
"2633999632","2411984561","2"
"2488054410","2583920446","1"
"2583920446","2488054410","1"
"2488054410","2633999632","1"
"2633999632","2488054410","1"
"2583920446","2633999632","1"
"2633999632","2583920446","1"
"2112167796","2924055479","2"
"2924055479","2112167796","2"
"401236404","2924055479","2"
"2924055479","401236404","2"
"473787648","2924055479","1"
"2924055479","473787648","1"
"2038748030","2924055479","2"
"2924055479","2038748030","2"
"2070253555","2924055479","2"
"2924055479","2070253555","2"
"2105103640","2924055479","2"
"2924055479","2105103640","2"
"2129161123","2924055479","2"
"2924055479","2129161123","2"
"2129760627","2924055479","2"
"2924055479","2129760627","2"
"2167788544","2924055479","2"
"2924055479","2167788544","2"
"2213038480","2924055479","2"
"2924055479","2213038480","2"
"2411984561","2924055479","2"
"2924055479","2411984561","2"
"2633999632","2924055479","1"
"2924055479","2633999632","1"
"2112167796","2911288277","1"
"2911288277","2112167796","1"
"2112167796","3006770235","1"
"3006770235","2112167796","1"
"401236404","2911288277","1"
"2911288277","401236404","1"
"401236404","3006770235","1"
"3006770235","401236404","1"
"2038748030","2911288277","1"
"2911288277","2038748030","1"
"2038748030","3006770235","1"
"3006770235","2038748030","1"
"2070253555","2911288277","1"
"2911288277","2070253555","1"
"2070253555","3006770235","1"
"3006770235","2070253555","1"
"2105103640","2911288277","1"
"2911288277","2105103640","1"
"2105103640","3006770235","1"
"3006770235","2105103640","1"
"2129161123","2911288277","1"
"2911288277","2129161123","1"
"2129161123","3006770235","1"
"3006770235","2129161123","1"
"2129760627","2911288277","1"
"2911288277","2129760627","1"
"2129760627","3006770235","1"
"3006770235","2129760627","1"
"2167788544","2911288277","1"
"2911288277","2167788544","1"
"2167788544","3006770235","1"
"3006770235","2167788544","1"
"2213038480","2911288277","1"
"2911288277","2213038480","1"
"2213038480","3006770235","1"
"3006770235","2213038480","1"
"2411984561","2911288277","1"
"2911288277","2411984561","1"
"2411984561","3006770235","1"
"3006770235","2411984561","1"
"2911288277","2924055479","1"
"2924055479","2911288277","1"
"2911288277","3006770235","1"
"3006770235","2911288277","1"
"2924055479","3006770235","1"
"3006770235","2924055479","1"
