"2299093390","14227721","1"
"14227721","2299093390","1"
"2299093390","2105061512","7"
"2105061512","2299093390","7"
"2299093390","2122552118","1"
"2122552118","2299093390","1"
"2299093390","2150778444","7"
"2150778444","2299093390","7"
"2299093390","2169627034","1"
"2169627034","2299093390","1"
"14227721","2105061512","1"
"2105061512","14227721","1"
"14227721","2122552118","1"
"2122552118","14227721","1"
"14227721","2150778444","1"
"2150778444","14227721","1"
"14227721","2169627034","1"
"2169627034","14227721","1"
"2105061512","2122552118","1"
"2122552118","2105061512","1"
"2105061512","2150778444","6"
"2150778444","2105061512","6"
"2105061512","2169627034","1"
"2169627034","2105061512","1"
"2122552118","2150778444","1"
"2150778444","2122552118","1"
"2122552118","2169627034","1"
"2169627034","2122552118","1"
"2150778444","2169627034","1"
"2169627034","2150778444","1"
"2299093390","2045902032","3"
"2045902032","2299093390","3"
"2045902032","2105061512","2"
"2105061512","2045902032","2"
"2045902032","2150778444","3"
"2150778444","2045902032","3"
"2299093390","2165807403","4"
"2165807403","2299093390","4"
"2299093390","2115210636","2"
"2115210636","2299093390","2"
"2299093390","2117901010","5"
"2117901010","2299093390","5"
"2299093390","2159428645","2"
"2159428645","2299093390","2"
"2299093390","2176823612","4"
"2176823612","2299093390","4"
"2299093390","2306137129","2"
"2306137129","2299093390","2"
"2299093390","2485282623","3"
"2485282623","2299093390","3"
"2115210636","2117901010","2"
"2117901010","2115210636","2"
"2115210636","2159428645","2"
"2159428645","2115210636","2"
"2115210636","2176823612","2"
"2176823612","2115210636","2"
"2115210636","2306137129","2"
"2306137129","2115210636","2"
"2115210636","2485282623","2"
"2485282623","2115210636","2"
"2117901010","2159428645","2"
"2159428645","2117901010","2"
"2117901010","2176823612","4"
"2176823612","2117901010","4"
"2117901010","2306137129","2"
"2306137129","2117901010","2"
"2117901010","2485282623","2"
"2485282623","2117901010","2"
"2159428645","2176823612","2"
"2176823612","2159428645","2"
"2159428645","2306137129","2"
"2306137129","2159428645","2"
"2159428645","2485282623","2"
"2485282623","2159428645","2"
"2176823612","2306137129","2"
"2306137129","2176823612","2"
"2176823612","2485282623","2"
"2485282623","2176823612","2"
"2306137129","2485282623","2"
"2485282623","2306137129","2"
"2299093390","2142472407","1"
"2142472407","2299093390","1"
"2299093390","2165641628","1"
"2165641628","2299093390","1"
"2299093390","2278151125","1"
"2278151125","2299093390","1"
"2299093390","2285450568","1"
"2285450568","2299093390","1"
"2299093390","2534507914","1"
"2534507914","2299093390","1"
"2299093390","2612384872","1"
"2612384872","2299093390","1"
"2142472407","2165641628","1"
"2165641628","2142472407","1"
"2142472407","2278151125","1"
"2278151125","2142472407","1"
"2142472407","2285450568","1"
"2285450568","2142472407","1"
"2142472407","2534507914","1"
"2534507914","2142472407","1"
"2142472407","2612384872","1"
"2612384872","2142472407","1"
"2165641628","2278151125","1"
"2278151125","2165641628","1"
"2165641628","2285450568","1"
"2285450568","2165641628","1"
"2165641628","2534507914","1"
"2534507914","2165641628","1"
"2165641628","2612384872","1"
"2612384872","2165641628","1"
"2278151125","2285450568","1"
"2285450568","2278151125","1"
"2278151125","2534507914","1"
"2534507914","2278151125","1"
"2278151125","2612384872","1"
"2612384872","2278151125","1"
"2285450568","2534507914","1"
"2534507914","2285450568","1"
"2285450568","2612384872","1"
"2612384872","2285450568","1"
"2534507914","2612384872","1"
"2612384872","2534507914","1"
"2299093390","178086930","2"
"178086930","2299093390","2"
"2299093390","1985348353","2"
"1985348353","2299093390","2"
"2299093390","2027156040","3"
"2027156040","2299093390","3"
"2299093390","2166693565","4"
"2166693565","2299093390","4"
"2299093390","2176209005","2"
"2176209005","2299093390","2"
"2299093390","2187156423","2"
"2187156423","2299093390","2"
"178086930","1985348353","2"
"1985348353","178086930","2"
"178086930","2027156040","2"
"2027156040","178086930","2"
"178086930","2105061512","2"
"2105061512","178086930","2"
"178086930","2150778444","2"
"2150778444","178086930","2"
"178086930","2166693565","2"
"2166693565","178086930","2"
"178086930","2176209005","2"
"2176209005","178086930","2"
"178086930","2187156423","2"
"2187156423","178086930","2"
"1985348353","2027156040","2"
"2027156040","1985348353","2"
"1985348353","2105061512","2"
"2105061512","1985348353","2"
"1985348353","2150778444","2"
"2150778444","1985348353","2"
"1985348353","2166693565","2"
"2166693565","1985348353","2"
"1985348353","2176209005","2"
"2176209005","1985348353","2"
"1985348353","2187156423","2"
"2187156423","1985348353","2"
"2027156040","2105061512","3"
"2105061512","2027156040","3"
"2027156040","2150778444","3"
"2150778444","2027156040","3"
"2027156040","2166693565","3"
"2166693565","2027156040","3"
"2027156040","2176209005","2"
"2176209005","2027156040","2"
"2027156040","2187156423","2"
"2187156423","2027156040","2"
"2105061512","2166693565","4"
"2166693565","2105061512","4"
"2105061512","2176209005","2"
"2176209005","2105061512","2"
"2105061512","2187156423","2"
"2187156423","2105061512","2"
"2150778444","2166693565","3"
"2166693565","2150778444","3"
"2150778444","2176209005","2"
"2176209005","2150778444","2"
"2150778444","2187156423","2"
"2187156423","2150778444","2"
"2166693565","2176209005","2"
"2176209005","2166693565","2"
"2166693565","2187156423","2"
"2187156423","2166693565","2"
"2176209005","2187156423","2"
"2187156423","2176209005","2"
"2299093390","2146419745","2"
"2146419745","2299093390","2"
"2299093390","2300334082","4"
"2300334082","2299093390","4"
"2299093390","2439605180","4"
"2439605180","2299093390","4"
"2146419745","2300334082","2"
"2300334082","2146419745","2"
"2146419745","2439605180","2"
"2439605180","2146419745","2"
"2300334082","2439605180","4"
"2439605180","2300334082","4"
"2299093390","2160578998","1"
"2160578998","2299093390","1"
"2299093390","2265077454","1"
"2265077454","2299093390","1"
"2299093390","2542149251","2"
"2542149251","2299093390","2"
"2160578998","2265077454","1"
"2265077454","2160578998","1"
"2160578998","2542149251","1"
"2542149251","2160578998","1"
"2265077454","2542149251","1"
"2542149251","2265077454","1"
"2299093390","1900955240","3"
"1900955240","2299093390","3"
"2299093390","1972600280","2"
"1972600280","2299093390","2"
"2299093390","2028026546","2"
"2028026546","2299093390","2"
"2299093390","2401536639","2"
"2401536639","2299093390","2"
"2299093390","2529665158","2"
"2529665158","2299093390","2"
"1900955240","1972600280","2"
"1972600280","1900955240","2"
"1900955240","2028026546","2"
"2028026546","1900955240","2"
"1900955240","2300334082","2"
"2300334082","1900955240","2"
"1900955240","2401536639","2"
"2401536639","1900955240","2"
"1900955240","2439605180","2"
"2439605180","1900955240","2"
"1900955240","2529665158","2"
"2529665158","1900955240","2"
"1972600280","2028026546","2"
"2028026546","1972600280","2"
"1972600280","2300334082","2"
"2300334082","1972600280","2"
"1972600280","2401536639","2"
"2401536639","1972600280","2"
"1972600280","2439605180","2"
"2439605180","1972600280","2"
"1972600280","2529665158","2"
"2529665158","1972600280","2"
"2028026546","2300334082","2"
"2300334082","2028026546","2"
"2028026546","2401536639","2"
"2401536639","2028026546","2"
"2028026546","2439605180","2"
"2439605180","2028026546","2"
"2028026546","2529665158","2"
"2529665158","2028026546","2"
"2300334082","2401536639","2"
"2401536639","2300334082","2"
"2300334082","2529665158","2"
"2529665158","2300334082","2"
"2401536639","2439605180","2"
"2439605180","2401536639","2"
"2401536639","2529665158","2"
"2529665158","2401536639","2"
"2439605180","2529665158","2"
"2529665158","2439605180","2"
"2299093390","130643368","1"
"130643368","2299093390","1"
"2299093390","1985580024","1"
"1985580024","2299093390","1"
"130643368","1985580024","1"
"1985580024","130643368","1"
"130643368","2045902032","1"
"2045902032","130643368","1"
"130643368","2150778444","1"
"2150778444","130643368","1"
"1985580024","2045902032","1"
"2045902032","1985580024","1"
"1985580024","2150778444","1"
"2150778444","1985580024","1"
"2299093390","2243565981","1"
"2243565981","2299093390","1"
"2299093390","2557766300","1"
"2557766300","2299093390","1"
"2105061512","2243565981","1"
"2243565981","2105061512","1"
"2105061512","2557766300","1"
"2557766300","2105061512","1"
"2166693565","2243565981","1"
"2243565981","2166693565","1"
"2166693565","2557766300","1"
"2557766300","2166693565","1"
"2243565981","2557766300","1"
"2557766300","2243565981","1"
"2299093390","2235790663","2"
"2235790663","2299093390","2"
"2299093390","2423222041","1"
"2423222041","2299093390","1"
"2117901010","2235790663","1"
"2235790663","2117901010","1"
"2117901010","2423222041","1"
"2423222041","2117901010","1"
"2176823612","2235790663","1"
"2235790663","2176823612","1"
"2176823612","2423222041","1"
"2423222041","2176823612","1"
"2235790663","2423222041","1"
"2423222041","2235790663","1"
"2299093390","2258436352","2"
"2258436352","2299093390","2"
"2299093390","2500450081","2"
"2500450081","2299093390","2"
"2299093390","2776650713","1"
"2776650713","2299093390","1"
"2117901010","2258436352","1"
"2258436352","2117901010","1"
"2117901010","2500450081","2"
"2500450081","2117901010","2"
"2117901010","2776650713","1"
"2776650713","2117901010","1"
"2258436352","2500450081","1"
"2500450081","2258436352","1"
"2258436352","2776650713","1"
"2776650713","2258436352","1"
"2500450081","2776650713","1"
"2776650713","2500450081","1"
"2299093390","1971195278","1"
"1971195278","2299093390","1"
"2299093390","2027954582","1"
"2027954582","2299093390","1"
"2299093390","2064546257","1"
"2064546257","2299093390","1"
"2299093390","2167600407","1"
"2167600407","2299093390","1"
"2299093390","2170290089","1"
"2170290089","2299093390","1"
"2299093390","2253470615","1"
"2253470615","2299093390","1"
"2299093390","2293783446","1"
"2293783446","2299093390","1"
"2299093390","2460445290","1"
"2460445290","2299093390","1"
"2299093390","2470639506","1"
"2470639506","2299093390","1"
"2299093390","2480548654","1"
"2480548654","2299093390","1"
"2299093390","2484637453","1"
"2484637453","2299093390","1"
"2299093390","2489794008","1"
"2489794008","2299093390","1"
"2299093390","2527562624","1"
"2527562624","2299093390","1"
"2299093390","2570517193","1"
"2570517193","2299093390","1"
"2299093390","2580707462","1"
"2580707462","2299093390","1"
"2299093390","2689198482","1"
"2689198482","2299093390","1"
"2299093390","2721832310","1"
"2721832310","2299093390","1"
"178086930","1971195278","1"
"1971195278","178086930","1"
"178086930","2027954582","1"
"2027954582","178086930","1"
"178086930","2064546257","1"
"2064546257","178086930","1"
"178086930","2167600407","1"
"2167600407","178086930","1"
"178086930","2170290089","1"
"2170290089","178086930","1"
"178086930","2253470615","1"
"2253470615","178086930","1"
"178086930","2293783446","1"
"2293783446","178086930","1"
"178086930","2460445290","1"
"2460445290","178086930","1"
"178086930","2470639506","1"
"2470639506","178086930","1"
"178086930","2480548654","1"
"2480548654","178086930","1"
"178086930","2484637453","1"
"2484637453","178086930","1"
"178086930","2489794008","1"
"2489794008","178086930","1"
"178086930","2527562624","1"
"2527562624","178086930","1"
"178086930","2570517193","1"
"2570517193","178086930","1"
"178086930","2580707462","1"
"2580707462","178086930","1"
"178086930","2689198482","1"
"2689198482","178086930","1"
"178086930","2721832310","1"
"2721832310","178086930","1"
"1971195278","1985348353","1"
"1985348353","1971195278","1"
"1971195278","2027156040","1"
"2027156040","1971195278","1"
"1971195278","2027954582","1"
"2027954582","1971195278","1"
"1971195278","2064546257","1"
"2064546257","1971195278","1"
"1971195278","2105061512","1"
"2105061512","1971195278","1"
"1971195278","2150778444","1"
"2150778444","1971195278","1"
"1971195278","2166693565","1"
"2166693565","1971195278","1"
"1971195278","2167600407","1"
"2167600407","1971195278","1"
"1971195278","2170290089","1"
"2170290089","1971195278","1"
"1971195278","2176209005","1"
"2176209005","1971195278","1"
"1971195278","2187156423","1"
"2187156423","1971195278","1"
"1971195278","2253470615","1"
"2253470615","1971195278","1"
"1971195278","2293783446","1"
"2293783446","1971195278","1"
"1971195278","2460445290","1"
"2460445290","1971195278","1"
"1971195278","2470639506","1"
"2470639506","1971195278","1"
"1971195278","2480548654","1"
"2480548654","1971195278","1"
"1971195278","2484637453","1"
"2484637453","1971195278","1"
"1971195278","2489794008","1"
"2489794008","1971195278","1"
"1971195278","2527562624","1"
"2527562624","1971195278","1"
"1971195278","2570517193","1"
"2570517193","1971195278","1"
"1971195278","2580707462","1"
"2580707462","1971195278","1"
"1971195278","2689198482","1"
"2689198482","1971195278","1"
"1971195278","2721832310","1"
"2721832310","1971195278","1"
"1985348353","2027954582","1"
"2027954582","1985348353","1"
"1985348353","2064546257","1"
"2064546257","1985348353","1"
"1985348353","2167600407","1"
"2167600407","1985348353","1"
"1985348353","2170290089","1"
"2170290089","1985348353","1"
"1985348353","2253470615","1"
"2253470615","1985348353","1"
"1985348353","2293783446","1"
"2293783446","1985348353","1"
"1985348353","2460445290","1"
"2460445290","1985348353","1"
"1985348353","2470639506","1"
"2470639506","1985348353","1"
"1985348353","2480548654","1"
"2480548654","1985348353","1"
"1985348353","2484637453","1"
"2484637453","1985348353","1"
"1985348353","2489794008","1"
"2489794008","1985348353","1"
"1985348353","2527562624","1"
"2527562624","1985348353","1"
"1985348353","2570517193","1"
"2570517193","1985348353","1"
"1985348353","2580707462","1"
"2580707462","1985348353","1"
"1985348353","2689198482","1"
"2689198482","1985348353","1"
"1985348353","2721832310","1"
"2721832310","1985348353","1"
"2027156040","2027954582","1"
"2027954582","2027156040","1"
"2027156040","2064546257","1"
"2064546257","2027156040","1"
"2027156040","2167600407","1"
"2167600407","2027156040","1"
"2027156040","2170290089","1"
"2170290089","2027156040","1"
"2027156040","2253470615","1"
"2253470615","2027156040","1"
"2027156040","2293783446","1"
"2293783446","2027156040","1"
"2027156040","2460445290","1"
"2460445290","2027156040","1"
"2027156040","2470639506","1"
"2470639506","2027156040","1"
"2027156040","2480548654","1"
"2480548654","2027156040","1"
"2027156040","2484637453","1"
"2484637453","2027156040","1"
"2027156040","2489794008","1"
"2489794008","2027156040","1"
"2027156040","2527562624","1"
"2527562624","2027156040","1"
"2027156040","2570517193","1"
"2570517193","2027156040","1"
"2027156040","2580707462","1"
"2580707462","2027156040","1"
"2027156040","2689198482","1"
"2689198482","2027156040","1"
"2027156040","2721832310","1"
"2721832310","2027156040","1"
"2027954582","2064546257","1"
"2064546257","2027954582","1"
"2027954582","2105061512","1"
"2105061512","2027954582","1"
"2027954582","2150778444","1"
"2150778444","2027954582","1"
"2027954582","2166693565","1"
"2166693565","2027954582","1"
"2027954582","2167600407","1"
"2167600407","2027954582","1"
"2027954582","2170290089","1"
"2170290089","2027954582","1"
"2027954582","2176209005","1"
"2176209005","2027954582","1"
"2027954582","2187156423","1"
"2187156423","2027954582","1"
"2027954582","2253470615","1"
"2253470615","2027954582","1"
"2027954582","2293783446","1"
"2293783446","2027954582","1"
"2027954582","2460445290","1"
"2460445290","2027954582","1"
"2027954582","2470639506","1"
"2470639506","2027954582","1"
"2027954582","2480548654","1"
"2480548654","2027954582","1"
"2027954582","2484637453","1"
"2484637453","2027954582","1"
"2027954582","2489794008","1"
"2489794008","2027954582","1"
"2027954582","2527562624","1"
"2527562624","2027954582","1"
"2027954582","2570517193","1"
"2570517193","2027954582","1"
"2027954582","2580707462","1"
"2580707462","2027954582","1"
"2027954582","2689198482","1"
"2689198482","2027954582","1"
"2027954582","2721832310","1"
"2721832310","2027954582","1"
"2064546257","2105061512","1"
"2105061512","2064546257","1"
"2064546257","2150778444","1"
"2150778444","2064546257","1"
"2064546257","2166693565","1"
"2166693565","2064546257","1"
"2064546257","2167600407","1"
"2167600407","2064546257","1"
"2064546257","2170290089","1"
"2170290089","2064546257","1"
"2064546257","2176209005","1"
"2176209005","2064546257","1"
"2064546257","2187156423","1"
"2187156423","2064546257","1"
"2064546257","2253470615","1"
"2253470615","2064546257","1"
"2064546257","2293783446","1"
"2293783446","2064546257","1"
"2064546257","2460445290","1"
"2460445290","2064546257","1"
"2064546257","2470639506","1"
"2470639506","2064546257","1"
"2064546257","2480548654","1"
"2480548654","2064546257","1"
"2064546257","2484637453","1"
"2484637453","2064546257","1"
"2064546257","2489794008","1"
"2489794008","2064546257","1"
"2064546257","2527562624","1"
"2527562624","2064546257","1"
"2064546257","2570517193","1"
"2570517193","2064546257","1"
"2064546257","2580707462","1"
"2580707462","2064546257","1"
"2064546257","2689198482","1"
"2689198482","2064546257","1"
"2064546257","2721832310","1"
"2721832310","2064546257","1"
"2105061512","2167600407","1"
"2167600407","2105061512","1"
"2105061512","2170290089","1"
"2170290089","2105061512","1"
"2105061512","2253470615","1"
"2253470615","2105061512","1"
"2105061512","2293783446","1"
"2293783446","2105061512","1"
"2105061512","2460445290","1"
"2460445290","2105061512","1"
"2105061512","2470639506","1"
"2470639506","2105061512","1"
"2105061512","2480548654","1"
"2480548654","2105061512","1"
"2105061512","2484637453","1"
"2484637453","2105061512","1"
"2105061512","2489794008","1"
"2489794008","2105061512","1"
"2105061512","2527562624","1"
"2527562624","2105061512","1"
"2105061512","2570517193","1"
"2570517193","2105061512","1"
"2105061512","2580707462","1"
"2580707462","2105061512","1"
"2105061512","2689198482","1"
"2689198482","2105061512","1"
"2105061512","2721832310","1"
"2721832310","2105061512","1"
"2150778444","2167600407","1"
"2167600407","2150778444","1"
"2150778444","2170290089","1"
"2170290089","2150778444","1"
"2150778444","2253470615","1"
"2253470615","2150778444","1"
"2150778444","2293783446","1"
"2293783446","2150778444","1"
"2150778444","2460445290","1"
"2460445290","2150778444","1"
"2150778444","2470639506","1"
"2470639506","2150778444","1"
"2150778444","2480548654","1"
"2480548654","2150778444","1"
"2150778444","2484637453","1"
"2484637453","2150778444","1"
"2150778444","2489794008","1"
"2489794008","2150778444","1"
"2150778444","2527562624","1"
"2527562624","2150778444","1"
"2150778444","2570517193","1"
"2570517193","2150778444","1"
"2150778444","2580707462","1"
"2580707462","2150778444","1"
"2150778444","2689198482","1"
"2689198482","2150778444","1"
"2150778444","2721832310","1"
"2721832310","2150778444","1"
"2166693565","2167600407","1"
"2167600407","2166693565","1"
"2166693565","2170290089","1"
"2170290089","2166693565","1"
"2166693565","2253470615","1"
"2253470615","2166693565","1"
"2166693565","2293783446","1"
"2293783446","2166693565","1"
"2166693565","2460445290","1"
"2460445290","2166693565","1"
"2166693565","2470639506","1"
"2470639506","2166693565","1"
"2166693565","2480548654","1"
"2480548654","2166693565","1"
"2166693565","2484637453","1"
"2484637453","2166693565","1"
"2166693565","2489794008","1"
"2489794008","2166693565","1"
"2166693565","2527562624","1"
"2527562624","2166693565","1"
"2166693565","2570517193","1"
"2570517193","2166693565","1"
"2166693565","2580707462","1"
"2580707462","2166693565","1"
"2166693565","2689198482","1"
"2689198482","2166693565","1"
"2166693565","2721832310","1"
"2721832310","2166693565","1"
"2167600407","2170290089","1"
"2170290089","2167600407","1"
"2167600407","2176209005","1"
"2176209005","2167600407","1"
"2167600407","2187156423","1"
"2187156423","2167600407","1"
"2167600407","2253470615","1"
"2253470615","2167600407","1"
"2167600407","2293783446","1"
"2293783446","2167600407","1"
"2167600407","2460445290","1"
"2460445290","2167600407","1"
"2167600407","2470639506","1"
"2470639506","2167600407","1"
"2167600407","2480548654","1"
"2480548654","2167600407","1"
"2167600407","2484637453","1"
"2484637453","2167600407","1"
"2167600407","2489794008","1"
"2489794008","2167600407","1"
"2167600407","2527562624","1"
"2527562624","2167600407","1"
"2167600407","2570517193","1"
"2570517193","2167600407","1"
"2167600407","2580707462","1"
"2580707462","2167600407","1"
"2167600407","2689198482","1"
"2689198482","2167600407","1"
"2167600407","2721832310","1"
"2721832310","2167600407","1"
"2170290089","2176209005","1"
"2176209005","2170290089","1"
"2170290089","2187156423","1"
"2187156423","2170290089","1"
"2170290089","2253470615","1"
"2253470615","2170290089","1"
"2170290089","2293783446","1"
"2293783446","2170290089","1"
"2170290089","2460445290","1"
"2460445290","2170290089","1"
"2170290089","2470639506","1"
"2470639506","2170290089","1"
"2170290089","2480548654","1"
"2480548654","2170290089","1"
"2170290089","2484637453","1"
"2484637453","2170290089","1"
"2170290089","2489794008","1"
"2489794008","2170290089","1"
"2170290089","2527562624","1"
"2527562624","2170290089","1"
"2170290089","2570517193","1"
"2570517193","2170290089","1"
"2170290089","2580707462","1"
"2580707462","2170290089","1"
"2170290089","2689198482","1"
"2689198482","2170290089","1"
"2170290089","2721832310","1"
"2721832310","2170290089","1"
"2176209005","2253470615","1"
"2253470615","2176209005","1"
"2176209005","2293783446","1"
"2293783446","2176209005","1"
"2176209005","2460445290","1"
"2460445290","2176209005","1"
"2176209005","2470639506","1"
"2470639506","2176209005","1"
"2176209005","2480548654","1"
"2480548654","2176209005","1"
"2176209005","2484637453","1"
"2484637453","2176209005","1"
"2176209005","2489794008","1"
"2489794008","2176209005","1"
"2176209005","2527562624","1"
"2527562624","2176209005","1"
"2176209005","2570517193","1"
"2570517193","2176209005","1"
"2176209005","2580707462","1"
"2580707462","2176209005","1"
"2176209005","2689198482","1"
"2689198482","2176209005","1"
"2176209005","2721832310","1"
"2721832310","2176209005","1"
"2187156423","2253470615","1"
"2253470615","2187156423","1"
"2187156423","2293783446","1"
"2293783446","2187156423","1"
"2187156423","2460445290","1"
"2460445290","2187156423","1"
"2187156423","2470639506","1"
"2470639506","2187156423","1"
"2187156423","2480548654","1"
"2480548654","2187156423","1"
"2187156423","2484637453","1"
"2484637453","2187156423","1"
"2187156423","2489794008","1"
"2489794008","2187156423","1"
"2187156423","2527562624","1"
"2527562624","2187156423","1"
"2187156423","2570517193","1"
"2570517193","2187156423","1"
"2187156423","2580707462","1"
"2580707462","2187156423","1"
"2187156423","2689198482","1"
"2689198482","2187156423","1"
"2187156423","2721832310","1"
"2721832310","2187156423","1"
"2253470615","2293783446","1"
"2293783446","2253470615","1"
"2253470615","2460445290","1"
"2460445290","2253470615","1"
"2253470615","2470639506","1"
"2470639506","2253470615","1"
"2253470615","2480548654","1"
"2480548654","2253470615","1"
"2253470615","2484637453","1"
"2484637453","2253470615","1"
"2253470615","2489794008","1"
"2489794008","2253470615","1"
"2253470615","2527562624","1"
"2527562624","2253470615","1"
"2253470615","2570517193","1"
"2570517193","2253470615","1"
"2253470615","2580707462","1"
"2580707462","2253470615","1"
"2253470615","2689198482","1"
"2689198482","2253470615","1"
"2253470615","2721832310","1"
"2721832310","2253470615","1"
"2293783446","2460445290","1"
"2460445290","2293783446","1"
"2293783446","2470639506","1"
"2470639506","2293783446","1"
"2293783446","2480548654","1"
"2480548654","2293783446","1"
"2293783446","2484637453","1"
"2484637453","2293783446","1"
"2293783446","2489794008","1"
"2489794008","2293783446","1"
"2293783446","2527562624","1"
"2527562624","2293783446","1"
"2293783446","2570517193","1"
"2570517193","2293783446","1"
"2293783446","2580707462","1"
"2580707462","2293783446","1"
"2293783446","2689198482","1"
"2689198482","2293783446","1"
"2293783446","2721832310","1"
"2721832310","2293783446","1"
"2460445290","2470639506","1"
"2470639506","2460445290","1"
"2460445290","2480548654","1"
"2480548654","2460445290","1"
"2460445290","2484637453","1"
"2484637453","2460445290","1"
"2460445290","2489794008","1"
"2489794008","2460445290","1"
"2460445290","2527562624","1"
"2527562624","2460445290","1"
"2460445290","2570517193","1"
"2570517193","2460445290","1"
"2460445290","2580707462","1"
"2580707462","2460445290","1"
"2460445290","2689198482","1"
"2689198482","2460445290","1"
"2460445290","2721832310","1"
"2721832310","2460445290","1"
"2470639506","2480548654","1"
"2480548654","2470639506","1"
"2470639506","2484637453","1"
"2484637453","2470639506","1"
"2470639506","2489794008","1"
"2489794008","2470639506","1"
"2470639506","2527562624","1"
"2527562624","2470639506","1"
"2470639506","2570517193","1"
"2570517193","2470639506","1"
"2470639506","2580707462","1"
"2580707462","2470639506","1"
"2470639506","2689198482","1"
"2689198482","2470639506","1"
"2470639506","2721832310","1"
"2721832310","2470639506","1"
"2480548654","2484637453","1"
"2484637453","2480548654","1"
"2480548654","2489794008","1"
"2489794008","2480548654","1"
"2480548654","2527562624","1"
"2527562624","2480548654","1"
"2480548654","2570517193","1"
"2570517193","2480548654","1"
"2480548654","2580707462","1"
"2580707462","2480548654","1"
"2480548654","2689198482","1"
"2689198482","2480548654","1"
"2480548654","2721832310","1"
"2721832310","2480548654","1"
"2484637453","2489794008","1"
"2489794008","2484637453","1"
"2484637453","2527562624","1"
"2527562624","2484637453","1"
"2484637453","2570517193","1"
"2570517193","2484637453","1"
"2484637453","2580707462","1"
"2580707462","2484637453","1"
"2484637453","2689198482","1"
"2689198482","2484637453","1"
"2484637453","2721832310","1"
"2721832310","2484637453","1"
"2489794008","2527562624","1"
"2527562624","2489794008","1"
"2489794008","2570517193","1"
"2570517193","2489794008","1"
"2489794008","2580707462","1"
"2580707462","2489794008","1"
"2489794008","2689198482","1"
"2689198482","2489794008","1"
"2489794008","2721832310","1"
"2721832310","2489794008","1"
"2527562624","2570517193","1"
"2570517193","2527562624","1"
"2527562624","2580707462","1"
"2580707462","2527562624","1"
"2527562624","2689198482","1"
"2689198482","2527562624","1"
"2527562624","2721832310","1"
"2721832310","2527562624","1"
"2570517193","2580707462","1"
"2580707462","2570517193","1"
"2570517193","2689198482","1"
"2689198482","2570517193","1"
"2570517193","2721832310","1"
"2721832310","2570517193","1"
"2580707462","2689198482","1"
"2689198482","2580707462","1"
"2580707462","2721832310","1"
"2721832310","2580707462","1"
"2689198482","2721832310","1"
"2721832310","2689198482","1"
"2299093390","2139638700","2"
"2139638700","2299093390","2"
"2139638700","2165807403","2"
"2165807403","2139638700","2"
"2299093390","1297729765","1"
"1297729765","2299093390","1"
"2299093390","2043017700","1"
"2043017700","2299093390","1"
"2299093390","2256172488","1"
"2256172488","2299093390","1"
"2299093390","2494532070","2"
"2494532070","2299093390","2"
"2299093390","2588529851","1"
"2588529851","2299093390","1"
"2299093390","2621373583","1"
"2621373583","2299093390","1"
"1297729765","1900955240","1"
"1900955240","1297729765","1"
"1297729765","2043017700","1"
"2043017700","1297729765","1"
"1297729765","2256172488","1"
"2256172488","1297729765","1"
"1297729765","2494532070","1"
"2494532070","1297729765","1"
"1297729765","2588529851","1"
"2588529851","1297729765","1"
"1297729765","2621373583","1"
"2621373583","1297729765","1"
"1900955240","2043017700","1"
"2043017700","1900955240","1"
"1900955240","2256172488","1"
"2256172488","1900955240","1"
"1900955240","2494532070","1"
"2494532070","1900955240","1"
"1900955240","2588529851","1"
"2588529851","1900955240","1"
"1900955240","2621373583","1"
"2621373583","1900955240","1"
"2043017700","2256172488","1"
"2256172488","2043017700","1"
"2043017700","2494532070","1"
"2494532070","2043017700","1"
"2043017700","2588529851","1"
"2588529851","2043017700","1"
"2043017700","2621373583","1"
"2621373583","2043017700","1"
"2256172488","2494532070","1"
"2494532070","2256172488","1"
"2256172488","2588529851","1"
"2588529851","2256172488","1"
"2256172488","2621373583","1"
"2621373583","2256172488","1"
"2494532070","2588529851","1"
"2588529851","2494532070","1"
"2494532070","2621373583","1"
"2621373583","2494532070","1"
"2588529851","2621373583","1"
"2621373583","2588529851","1"
"2299093390","2107128862","1"
"2107128862","2299093390","1"
"2299093390","2169680243","1"
"2169680243","2299093390","1"
"2299093390","2580003259","1"
"2580003259","2299093390","1"
"2107128862","2169680243","1"
"2169680243","2107128862","1"
"2107128862","2494532070","1"
"2494532070","2107128862","1"
"2107128862","2580003259","1"
"2580003259","2107128862","1"
"2169680243","2494532070","1"
"2494532070","2169680243","1"
"2169680243","2580003259","1"
"2580003259","2169680243","1"
"2494532070","2580003259","1"
"2580003259","2494532070","1"
"2299093390","2301930978","1"
"2301930978","2299093390","1"
"2235790663","2258436352","1"
"2258436352","2235790663","1"
"2235790663","2301930978","1"
"2301930978","2235790663","1"
"2258436352","2301930978","1"
"2301930978","2258436352","1"
"2299093390","1043911908","1"
"1043911908","2299093390","1"
"2299093390","1992290920","1"
"1992290920","2299093390","1"
"2299093390","2103214020","1"
"2103214020","2299093390","1"
"2299093390","2108125767","1"
"2108125767","2299093390","1"
"2299093390","2109586354","1"
"2109586354","2299093390","1"
"2299093390","2157200894","1"
"2157200894","2299093390","1"
"2299093390","2510381542","1"
"2510381542","2299093390","1"
"2299093390","2540568176","1"
"2540568176","2299093390","1"
"2299093390","2567444938","1"
"2567444938","2299093390","1"
"1043911908","1992290920","1"
"1992290920","1043911908","1"
"1043911908","2103214020","1"
"2103214020","1043911908","1"
"1043911908","2108125767","1"
"2108125767","1043911908","1"
"1043911908","2109586354","1"
"2109586354","1043911908","1"
"1043911908","2117901010","1"
"2117901010","1043911908","1"
"1043911908","2157200894","1"
"2157200894","1043911908","1"
"1043911908","2176823612","1"
"2176823612","1043911908","1"
"1043911908","2500450081","1"
"2500450081","1043911908","1"
"1043911908","2510381542","1"
"2510381542","1043911908","1"
"1043911908","2540568176","1"
"2540568176","1043911908","1"
"1043911908","2542149251","1"
"2542149251","1043911908","1"
"1043911908","2567444938","1"
"2567444938","1043911908","1"
"1992290920","2103214020","1"
"2103214020","1992290920","1"
"1992290920","2108125767","1"
"2108125767","1992290920","1"
"1992290920","2109586354","1"
"2109586354","1992290920","1"
"1992290920","2117901010","1"
"2117901010","1992290920","1"
"1992290920","2157200894","1"
"2157200894","1992290920","1"
"1992290920","2176823612","1"
"2176823612","1992290920","1"
"1992290920","2500450081","1"
"2500450081","1992290920","1"
"1992290920","2510381542","1"
"2510381542","1992290920","1"
"1992290920","2540568176","1"
"2540568176","1992290920","1"
"1992290920","2542149251","1"
"2542149251","1992290920","1"
"1992290920","2567444938","1"
"2567444938","1992290920","1"
"2103214020","2108125767","1"
"2108125767","2103214020","1"
"2103214020","2109586354","1"
"2109586354","2103214020","1"
"2103214020","2117901010","1"
"2117901010","2103214020","1"
"2103214020","2157200894","1"
"2157200894","2103214020","1"
"2103214020","2176823612","1"
"2176823612","2103214020","1"
"2103214020","2500450081","1"
"2500450081","2103214020","1"
"2103214020","2510381542","1"
"2510381542","2103214020","1"
"2103214020","2540568176","1"
"2540568176","2103214020","1"
"2103214020","2542149251","1"
"2542149251","2103214020","1"
"2103214020","2567444938","1"
"2567444938","2103214020","1"
"2108125767","2109586354","1"
"2109586354","2108125767","1"
"2108125767","2117901010","1"
"2117901010","2108125767","1"
"2108125767","2157200894","1"
"2157200894","2108125767","1"
"2108125767","2176823612","1"
"2176823612","2108125767","1"
"2108125767","2500450081","1"
"2500450081","2108125767","1"
"2108125767","2510381542","1"
"2510381542","2108125767","1"
"2108125767","2540568176","1"
"2540568176","2108125767","1"
"2108125767","2542149251","1"
"2542149251","2108125767","1"
"2108125767","2567444938","1"
"2567444938","2108125767","1"
"2109586354","2117901010","1"
"2117901010","2109586354","1"
"2109586354","2157200894","1"
"2157200894","2109586354","1"
"2109586354","2176823612","1"
"2176823612","2109586354","1"
"2109586354","2500450081","1"
"2500450081","2109586354","1"
"2109586354","2510381542","1"
"2510381542","2109586354","1"
"2109586354","2540568176","1"
"2540568176","2109586354","1"
"2109586354","2542149251","1"
"2542149251","2109586354","1"
"2109586354","2567444938","1"
"2567444938","2109586354","1"
"2117901010","2157200894","1"
"2157200894","2117901010","1"
"2117901010","2510381542","1"
"2510381542","2117901010","1"
"2117901010","2540568176","1"
"2540568176","2117901010","1"
"2117901010","2542149251","1"
"2542149251","2117901010","1"
"2117901010","2567444938","1"
"2567444938","2117901010","1"
"2157200894","2176823612","1"
"2176823612","2157200894","1"
"2157200894","2500450081","1"
"2500450081","2157200894","1"
"2157200894","2510381542","1"
"2510381542","2157200894","1"
"2157200894","2540568176","1"
"2540568176","2157200894","1"
"2157200894","2542149251","1"
"2542149251","2157200894","1"
"2157200894","2567444938","1"
"2567444938","2157200894","1"
"2176823612","2500450081","1"
"2500450081","2176823612","1"
"2176823612","2510381542","1"
"2510381542","2176823612","1"
"2176823612","2540568176","1"
"2540568176","2176823612","1"
"2176823612","2542149251","1"
"2542149251","2176823612","1"
"2176823612","2567444938","1"
"2567444938","2176823612","1"
"2500450081","2510381542","1"
"2510381542","2500450081","1"
"2500450081","2540568176","1"
"2540568176","2500450081","1"
"2500450081","2542149251","1"
"2542149251","2500450081","1"
"2500450081","2567444938","1"
"2567444938","2500450081","1"
"2510381542","2540568176","1"
"2540568176","2510381542","1"
"2510381542","2542149251","1"
"2542149251","2510381542","1"
"2510381542","2567444938","1"
"2567444938","2510381542","1"
"2540568176","2542149251","1"
"2542149251","2540568176","1"
"2540568176","2567444938","1"
"2567444938","2540568176","1"
"2542149251","2567444938","1"
"2567444938","2542149251","1"
"2299093390","342400450","1"
"342400450","2299093390","1"
"2299093390","1991360145","1"
"1991360145","2299093390","1"
"2299093390","2524608753","1"
"2524608753","2299093390","1"
"342400450","1991360145","1"
"1991360145","342400450","1"
"342400450","2485282623","1"
"2485282623","342400450","1"
"342400450","2524608753","1"
"2524608753","342400450","1"
"1991360145","2485282623","1"
"2485282623","1991360145","1"
"1991360145","2524608753","1"
"2524608753","1991360145","1"
"2485282623","2524608753","1"
"2524608753","2485282623","1"
"2299093390","949849397","2"
"949849397","2299093390","2"
"2299093390","2021110987","1"
"2021110987","2299093390","1"
"2299093390","2030527893","2"
"2030527893","2299093390","2"
"2299093390","2101501976","2"
"2101501976","2299093390","2"
"2299093390","2149180876","2"
"2149180876","2299093390","2"
"949849397","2021110987","1"
"2021110987","949849397","1"
"949849397","2030527893","2"
"2030527893","949849397","2"
"949849397","2101501976","2"
"2101501976","949849397","2"
"949849397","2149180876","2"
"2149180876","949849397","2"
"2021110987","2030527893","1"
"2030527893","2021110987","1"
"2021110987","2101501976","1"
"2101501976","2021110987","1"
"2021110987","2149180876","1"
"2149180876","2021110987","1"
"2030527893","2101501976","2"
"2101501976","2030527893","2"
"2030527893","2149180876","2"
"2149180876","2030527893","2"
"2101501976","2149180876","2"
"2149180876","2101501976","2"
"2299093390","2653848592","1"
"2653848592","2299093390","1"
"2299093390","2741259615","1"
"2741259615","2299093390","1"
"2299093390","2741662812","1"
"2741662812","2299093390","1"
"2653848592","2741259615","1"
"2741259615","2653848592","1"
"2653848592","2741662812","1"
"2741662812","2653848592","1"
"2741259615","2741662812","1"
"2741662812","2741259615","1"
"2299093390","2747129165","3"
"2747129165","2299093390","3"
"2299093390","2757229117","1"
"2757229117","2299093390","1"
"2299093390","2757715706","1"
"2757715706","2299093390","1"
"2299093390","2759088990","1"
"2759088990","2299093390","1"
"2299093390","2759424056","1"
"2759424056","2299093390","1"
"2299093390","2759700308","1"
"2759700308","2299093390","1"
"2299093390","2759745704","1"
"2759745704","2299093390","1"
"949849397","2747129165","1"
"2747129165","949849397","1"
"949849397","2757229117","1"
"2757229117","949849397","1"
"949849397","2757715706","1"
"2757715706","949849397","1"
"949849397","2759088990","1"
"2759088990","949849397","1"
"949849397","2759424056","1"
"2759424056","949849397","1"
"949849397","2759700308","1"
"2759700308","949849397","1"
"949849397","2759745704","1"
"2759745704","949849397","1"
"2030527893","2747129165","1"
"2747129165","2030527893","1"
"2030527893","2757229117","1"
"2757229117","2030527893","1"
"2030527893","2757715706","1"
"2757715706","2030527893","1"
"2030527893","2759088990","1"
"2759088990","2030527893","1"
"2030527893","2759424056","1"
"2759424056","2030527893","1"
"2030527893","2759700308","1"
"2759700308","2030527893","1"
"2030527893","2759745704","1"
"2759745704","2030527893","1"
"2101501976","2747129165","1"
"2747129165","2101501976","1"
"2101501976","2757229117","1"
"2757229117","2101501976","1"
"2101501976","2757715706","1"
"2757715706","2101501976","1"
"2101501976","2759088990","1"
"2759088990","2101501976","1"
"2101501976","2759424056","1"
"2759424056","2101501976","1"
"2101501976","2759700308","1"
"2759700308","2101501976","1"
"2101501976","2759745704","1"
"2759745704","2101501976","1"
"2149180876","2747129165","1"
"2747129165","2149180876","1"
"2149180876","2757229117","1"
"2757229117","2149180876","1"
"2149180876","2757715706","1"
"2757715706","2149180876","1"
"2149180876","2759088990","1"
"2759088990","2149180876","1"
"2149180876","2759424056","1"
"2759424056","2149180876","1"
"2149180876","2759700308","1"
"2759700308","2149180876","1"
"2149180876","2759745704","1"
"2759745704","2149180876","1"
"2747129165","2757229117","1"
"2757229117","2747129165","1"
"2747129165","2757715706","1"
"2757715706","2747129165","1"
"2747129165","2759088990","1"
"2759088990","2747129165","1"
"2747129165","2759424056","1"
"2759424056","2747129165","1"
"2747129165","2759700308","1"
"2759700308","2747129165","1"
"2747129165","2759745704","1"
"2759745704","2747129165","1"
"2757229117","2757715706","1"
"2757715706","2757229117","1"
"2757229117","2759088990","1"
"2759088990","2757229117","1"
"2757229117","2759424056","1"
"2759424056","2757229117","1"
"2757229117","2759700308","1"
"2759700308","2757229117","1"
"2757229117","2759745704","1"
"2759745704","2757229117","1"
"2757715706","2759088990","1"
"2759088990","2757715706","1"
"2757715706","2759424056","1"
"2759424056","2757715706","1"
"2757715706","2759700308","1"
"2759700308","2757715706","1"
"2757715706","2759745704","1"
"2759745704","2757715706","1"
"2759088990","2759424056","1"
"2759424056","2759088990","1"
"2759088990","2759700308","1"
"2759700308","2759088990","1"
"2759088990","2759745704","1"
"2759745704","2759088990","1"
"2759424056","2759700308","1"
"2759700308","2759424056","1"
"2759424056","2759745704","1"
"2759745704","2759424056","1"
"2759700308","2759745704","1"
"2759745704","2759700308","1"
"2299093390","2757461583","1"
"2757461583","2299093390","1"
"2299093390","2757717085","1"
"2757717085","2299093390","1"
"2299093390","2758360832","1"
"2758360832","2299093390","1"
"2299093390","2759055251","1"
"2759055251","2299093390","1"
"2299093390","2759608710","1"
"2759608710","2299093390","1"
"2299093390","2760328027","1"
"2760328027","2299093390","1"
"2115210636","2747129165","1"
"2747129165","2115210636","1"
"2115210636","2757461583","1"
"2757461583","2115210636","1"
"2115210636","2757717085","1"
"2757717085","2115210636","1"
"2115210636","2758360832","1"
"2758360832","2115210636","1"
"2115210636","2759055251","1"
"2759055251","2115210636","1"
"2115210636","2759608710","1"
"2759608710","2115210636","1"
"2115210636","2760328027","1"
"2760328027","2115210636","1"
"2117901010","2747129165","1"
"2747129165","2117901010","1"
"2117901010","2757461583","1"
"2757461583","2117901010","1"
"2117901010","2757717085","1"
"2757717085","2117901010","1"
"2117901010","2758360832","1"
"2758360832","2117901010","1"
"2117901010","2759055251","1"
"2759055251","2117901010","1"
"2117901010","2759608710","1"
"2759608710","2117901010","1"
"2117901010","2760328027","1"
"2760328027","2117901010","1"
"2159428645","2747129165","1"
"2747129165","2159428645","1"
"2159428645","2757461583","1"
"2757461583","2159428645","1"
"2159428645","2757717085","1"
"2757717085","2159428645","1"
"2159428645","2758360832","1"
"2758360832","2159428645","1"
"2159428645","2759055251","1"
"2759055251","2159428645","1"
"2159428645","2759608710","1"
"2759608710","2159428645","1"
"2159428645","2760328027","1"
"2760328027","2159428645","1"
"2176823612","2747129165","1"
"2747129165","2176823612","1"
"2176823612","2757461583","1"
"2757461583","2176823612","1"
"2176823612","2757717085","1"
"2757717085","2176823612","1"
"2176823612","2758360832","1"
"2758360832","2176823612","1"
"2176823612","2759055251","1"
"2759055251","2176823612","1"
"2176823612","2759608710","1"
"2759608710","2176823612","1"
"2176823612","2760328027","1"
"2760328027","2176823612","1"
"2306137129","2747129165","1"
"2747129165","2306137129","1"
"2306137129","2757461583","1"
"2757461583","2306137129","1"
"2306137129","2757717085","1"
"2757717085","2306137129","1"
"2306137129","2758360832","1"
"2758360832","2306137129","1"
"2306137129","2759055251","1"
"2759055251","2306137129","1"
"2306137129","2759608710","1"
"2759608710","2306137129","1"
"2306137129","2760328027","1"
"2760328027","2306137129","1"
"2485282623","2747129165","1"
"2747129165","2485282623","1"
"2485282623","2757461583","1"
"2757461583","2485282623","1"
"2485282623","2757717085","1"
"2757717085","2485282623","1"
"2485282623","2758360832","1"
"2758360832","2485282623","1"
"2485282623","2759055251","1"
"2759055251","2485282623","1"
"2485282623","2759608710","1"
"2759608710","2485282623","1"
"2485282623","2760328027","1"
"2760328027","2485282623","1"
"2747129165","2757461583","1"
"2757461583","2747129165","1"
"2747129165","2757717085","1"
"2757717085","2747129165","1"
"2747129165","2758360832","1"
"2758360832","2747129165","1"
"2747129165","2759055251","1"
"2759055251","2747129165","1"
"2747129165","2759608710","1"
"2759608710","2747129165","1"
"2747129165","2760328027","1"
"2760328027","2747129165","1"
"2757461583","2757717085","1"
"2757717085","2757461583","1"
"2757461583","2758360832","1"
"2758360832","2757461583","1"
"2757461583","2759055251","1"
"2759055251","2757461583","1"
"2757461583","2759608710","1"
"2759608710","2757461583","1"
"2757461583","2760328027","1"
"2760328027","2757461583","1"
"2757717085","2758360832","1"
"2758360832","2757717085","1"
"2757717085","2759055251","1"
"2759055251","2757717085","1"
"2757717085","2759608710","1"
"2759608710","2757717085","1"
"2757717085","2760328027","1"
"2760328027","2757717085","1"
"2758360832","2759055251","1"
"2759055251","2758360832","1"
"2758360832","2759608710","1"
"2759608710","2758360832","1"
"2758360832","2760328027","1"
"2760328027","2758360832","1"
"2759055251","2759608710","1"
"2759608710","2759055251","1"
"2759055251","2760328027","1"
"2760328027","2759055251","1"
"2759608710","2760328027","1"
"2760328027","2759608710","1"
"2299093390","2745390751","1"
"2745390751","2299093390","1"
"2299093390","2746782190","1"
"2746782190","2299093390","1"
"2299093390","2748166493","1"
"2748166493","2299093390","1"
"2299093390","2748450543","1"
"2748450543","2299093390","1"
"2299093390","2748789662","1"
"2748789662","2299093390","1"
"2299093390","2749895213","1"
"2749895213","2299093390","1"
"2299093390","2757497189","1"
"2757497189","2299093390","1"
"1900955240","2745390751","1"
"2745390751","1900955240","1"
"1900955240","2746782190","1"
"2746782190","1900955240","1"
"1900955240","2747129165","1"
"2747129165","1900955240","1"
"1900955240","2748166493","1"
"2748166493","1900955240","1"
"1900955240","2748450543","1"
"2748450543","1900955240","1"
"1900955240","2748789662","1"
"2748789662","1900955240","1"
"1900955240","2749895213","1"
"2749895213","1900955240","1"
"1900955240","2757497189","1"
"2757497189","1900955240","1"
"1972600280","2745390751","1"
"2745390751","1972600280","1"
"1972600280","2746782190","1"
"2746782190","1972600280","1"
"1972600280","2747129165","1"
"2747129165","1972600280","1"
"1972600280","2748166493","1"
"2748166493","1972600280","1"
"1972600280","2748450543","1"
"2748450543","1972600280","1"
"1972600280","2748789662","1"
"2748789662","1972600280","1"
"1972600280","2749895213","1"
"2749895213","1972600280","1"
"1972600280","2757497189","1"
"2757497189","1972600280","1"
"2028026546","2745390751","1"
"2745390751","2028026546","1"
"2028026546","2746782190","1"
"2746782190","2028026546","1"
"2028026546","2747129165","1"
"2747129165","2028026546","1"
"2028026546","2748166493","1"
"2748166493","2028026546","1"
"2028026546","2748450543","1"
"2748450543","2028026546","1"
"2028026546","2748789662","1"
"2748789662","2028026546","1"
"2028026546","2749895213","1"
"2749895213","2028026546","1"
"2028026546","2757497189","1"
"2757497189","2028026546","1"
"2300334082","2745390751","1"
"2745390751","2300334082","1"
"2300334082","2746782190","1"
"2746782190","2300334082","1"
"2300334082","2747129165","1"
"2747129165","2300334082","1"
"2300334082","2748166493","1"
"2748166493","2300334082","1"
"2300334082","2748450543","1"
"2748450543","2300334082","1"
"2300334082","2748789662","1"
"2748789662","2300334082","1"
"2300334082","2749895213","1"
"2749895213","2300334082","1"
"2300334082","2757497189","1"
"2757497189","2300334082","1"
"2401536639","2745390751","1"
"2745390751","2401536639","1"
"2401536639","2746782190","1"
"2746782190","2401536639","1"
"2401536639","2747129165","1"
"2747129165","2401536639","1"
"2401536639","2748166493","1"
"2748166493","2401536639","1"
"2401536639","2748450543","1"
"2748450543","2401536639","1"
"2401536639","2748789662","1"
"2748789662","2401536639","1"
"2401536639","2749895213","1"
"2749895213","2401536639","1"
"2401536639","2757497189","1"
"2757497189","2401536639","1"
"2439605180","2745390751","1"
"2745390751","2439605180","1"
"2439605180","2746782190","1"
"2746782190","2439605180","1"
"2439605180","2747129165","1"
"2747129165","2439605180","1"
"2439605180","2748166493","1"
"2748166493","2439605180","1"
"2439605180","2748450543","1"
"2748450543","2439605180","1"
"2439605180","2748789662","1"
"2748789662","2439605180","1"
"2439605180","2749895213","1"
"2749895213","2439605180","1"
"2439605180","2757497189","1"
"2757497189","2439605180","1"
"2529665158","2745390751","1"
"2745390751","2529665158","1"
"2529665158","2746782190","1"
"2746782190","2529665158","1"
"2529665158","2747129165","1"
"2747129165","2529665158","1"
"2529665158","2748166493","1"
"2748166493","2529665158","1"
"2529665158","2748450543","1"
"2748450543","2529665158","1"
"2529665158","2748789662","1"
"2748789662","2529665158","1"
"2529665158","2749895213","1"
"2749895213","2529665158","1"
"2529665158","2757497189","1"
"2757497189","2529665158","1"
"2745390751","2746782190","1"
"2746782190","2745390751","1"
"2745390751","2747129165","1"
"2747129165","2745390751","1"
"2745390751","2748166493","1"
"2748166493","2745390751","1"
"2745390751","2748450543","1"
"2748450543","2745390751","1"
"2745390751","2748789662","1"
"2748789662","2745390751","1"
"2745390751","2749895213","1"
"2749895213","2745390751","1"
"2745390751","2757497189","1"
"2757497189","2745390751","1"
"2746782190","2747129165","1"
"2747129165","2746782190","1"
"2746782190","2748166493","1"
"2748166493","2746782190","1"
"2746782190","2748450543","1"
"2748450543","2746782190","1"
"2746782190","2748789662","1"
"2748789662","2746782190","1"
"2746782190","2749895213","1"
"2749895213","2746782190","1"
"2746782190","2757497189","1"
"2757497189","2746782190","1"
"2747129165","2748166493","1"
"2748166493","2747129165","1"
"2747129165","2748450543","1"
"2748450543","2747129165","1"
"2747129165","2748789662","1"
"2748789662","2747129165","1"
"2747129165","2749895213","1"
"2749895213","2747129165","1"
"2747129165","2757497189","1"
"2757497189","2747129165","1"
"2748166493","2748450543","1"
"2748450543","2748166493","1"
"2748166493","2748789662","1"
"2748789662","2748166493","1"
"2748166493","2749895213","1"
"2749895213","2748166493","1"
"2748166493","2757497189","1"
"2757497189","2748166493","1"
"2748450543","2748789662","1"
"2748789662","2748450543","1"
"2748450543","2749895213","1"
"2749895213","2748450543","1"
"2748450543","2757497189","1"
"2757497189","2748450543","1"
"2748789662","2749895213","1"
"2749895213","2748789662","1"
"2748789662","2757497189","1"
"2757497189","2748789662","1"
"2749895213","2757497189","1"
"2757497189","2749895213","1"
