"1539014283","2041811602","7"
"2041811602","1539014283","7"
"1539014283","2575157145","1"
"2575157145","1539014283","1"
"2041811602","2575157145","1"
"2575157145","2041811602","1"
"1539014283","2138086510","10"
"2138086510","1539014283","10"
"1539014283","2146000536","13"
"2146000536","1539014283","13"
"2138086510","2146000536","10"
"2146000536","2138086510","10"
"1539014283","2415552528","1"
"2415552528","1539014283","1"
"2138086510","2415552528","1"
"2415552528","2138086510","1"
"2146000536","2415552528","1"
"2415552528","2146000536","1"
"1539014283","2128422076","3"
"2128422076","1539014283","3"
"2041811602","2128422076","3"
"2128422076","2041811602","3"
"1539014283","1963530924","6"
"1963530924","1539014283","6"
"1539014283","1983488378","2"
"1983488378","1539014283","2"
"1539014283","2060391340","2"
"2060391340","1539014283","2"
"1539014283","2264310793","3"
"2264310793","1539014283","3"
"1539014283","2268122231","4"
"2268122231","1539014283","4"
"1539014283","2562653830","4"
"2562653830","1539014283","4"
"1539014283","2949681511","2"
"2949681511","1539014283","2"
"1963530924","1983488378","2"
"1983488378","1963530924","2"
"1963530924","2041811602","3"
"2041811602","1963530924","3"
"1963530924","2060391340","2"
"2060391340","1963530924","2"
"1963530924","2264310793","3"
"2264310793","1963530924","3"
"1963530924","2268122231","4"
"2268122231","1963530924","4"
"1963530924","2562653830","3"
"2562653830","1963530924","3"
"1963530924","2949681511","2"
"2949681511","1963530924","2"
"1983488378","2041811602","2"
"2041811602","1983488378","2"
"1983488378","2060391340","1"
"2060391340","1983488378","1"
"1983488378","2264310793","2"
"2264310793","1983488378","2"
"1983488378","2268122231","2"
"2268122231","1983488378","2"
"1983488378","2562653830","2"
"2562653830","1983488378","2"
"1983488378","2949681511","1"
"2949681511","1983488378","1"
"2041811602","2060391340","1"
"2060391340","2041811602","1"
"2041811602","2264310793","3"
"2264310793","2041811602","3"
"2041811602","2268122231","3"
"2268122231","2041811602","3"
"2041811602","2562653830","2"
"2562653830","2041811602","2"
"2041811602","2949681511","2"
"2949681511","2041811602","2"
"2060391340","2264310793","1"
"2264310793","2060391340","1"
"2060391340","2268122231","2"
"2268122231","2060391340","2"
"2060391340","2562653830","2"
"2562653830","2060391340","2"
"2060391340","2949681511","1"
"2949681511","2060391340","1"
"2264310793","2268122231","3"
"2268122231","2264310793","3"
"2264310793","2562653830","2"
"2562653830","2264310793","2"
"2264310793","2949681511","2"
"2949681511","2264310793","2"
"2268122231","2562653830","3"
"2562653830","2268122231","3"
"2268122231","2949681511","2"
"2949681511","2268122231","2"
"2562653830","2949681511","1"
"2949681511","2562653830","1"
"1539014283","323468284","1"
"323468284","1539014283","1"
"1539014283","1987057081","1"
"1987057081","1539014283","1"
"1539014283","2218707695","1"
"2218707695","1539014283","1"
"1539014283","2595010611","1"
"2595010611","1539014283","1"
"1539014283","2693585871","1"
"2693585871","1539014283","1"
"1539014283","2806540206","1"
"2806540206","1539014283","1"
"323468284","1987057081","1"
"1987057081","323468284","1"
"323468284","2218707695","1"
"2218707695","323468284","1"
"323468284","2595010611","1"
"2595010611","323468284","1"
"323468284","2693585871","1"
"2693585871","323468284","1"
"323468284","2806540206","1"
"2806540206","323468284","1"
"1987057081","2218707695","1"
"2218707695","1987057081","1"
"1987057081","2595010611","1"
"2595010611","1987057081","1"
"1987057081","2693585871","1"
"2693585871","1987057081","1"
"1987057081","2806540206","1"
"2806540206","1987057081","1"
"2218707695","2595010611","1"
"2595010611","2218707695","1"
"2218707695","2693585871","1"
"2693585871","2218707695","1"
"2218707695","2806540206","1"
"2806540206","2218707695","1"
"2595010611","2693585871","1"
"2693585871","2595010611","1"
"2595010611","2806540206","1"
"2806540206","2595010611","1"
"2693585871","2806540206","1"
"2806540206","2693585871","1"
"1539014283","2096376251","1"
"2096376251","1539014283","1"
"1539014283","2280319277","1"
"2280319277","1539014283","1"
"2041811602","2096376251","1"
"2096376251","2041811602","1"
"2041811602","2280319277","1"
"2280319277","2041811602","1"
"2096376251","2128422076","1"
"2128422076","2096376251","1"
"2096376251","2280319277","1"
"2280319277","2096376251","1"
"2128422076","2280319277","1"
"2280319277","2128422076","1"
"1539014283","2125020474","2"
"2125020474","1539014283","2"
"1539014283","2270525176","1"
"2270525176","1539014283","1"
"1539014283","2612384872","2"
"2612384872","1539014283","2"
"1963530924","2125020474","2"
"2125020474","1963530924","2"
"1963530924","2270525176","1"
"2270525176","1963530924","1"
"1963530924","2612384872","2"
"2612384872","1963530924","2"
"1983488378","2125020474","1"
"2125020474","1983488378","1"
"1983488378","2270525176","1"
"2270525176","1983488378","1"
"1983488378","2612384872","1"
"2612384872","1983488378","1"
"2041811602","2125020474","2"
"2125020474","2041811602","2"
"2041811602","2270525176","1"
"2270525176","2041811602","1"
"2041811602","2612384872","2"
"2612384872","2041811602","2"
"2125020474","2264310793","2"
"2264310793","2125020474","2"
"2125020474","2268122231","2"
"2268122231","2125020474","2"
"2125020474","2270525176","1"
"2270525176","2125020474","1"
"2125020474","2562653830","1"
"2562653830","2125020474","1"
"2125020474","2612384872","2"
"2612384872","2125020474","2"
"2264310793","2270525176","1"
"2270525176","2264310793","1"
"2264310793","2612384872","2"
"2612384872","2264310793","2"
"2268122231","2270525176","1"
"2270525176","2268122231","1"
"2268122231","2612384872","2"
"2612384872","2268122231","2"
"2270525176","2562653830","1"
"2562653830","2270525176","1"
"2270525176","2612384872","1"
"2612384872","2270525176","1"
"2562653830","2612384872","1"
"2612384872","2562653830","1"
"1539014283","717547165","2"
"717547165","1539014283","2"
"1539014283","1585756282","2"
"1585756282","1539014283","2"
"1539014283","2091485889","2"
"2091485889","1539014283","2"
"717547165","1585756282","2"
"1585756282","717547165","2"
"717547165","2091485889","2"
"2091485889","717547165","2"
"1585756282","2091485889","2"
"2091485889","1585756282","2"
"1539014283","1900053499","2"
"1900053499","1539014283","2"
"1539014283","1991162671","2"
"1991162671","1539014283","2"
"1539014283","2006862919","2"
"2006862919","1539014283","2"
"1900053499","1991162671","1"
"1991162671","1900053499","1"
"1900053499","2006862919","1"
"2006862919","1900053499","1"
"1900053499","2138086510","2"
"2138086510","1900053499","2"
"1900053499","2146000536","2"
"2146000536","1900053499","2"
"1991162671","2006862919","2"
"2006862919","1991162671","2"
"1991162671","2138086510","2"
"2138086510","1991162671","2"
"1991162671","2146000536","2"
"2146000536","1991162671","2"
"2006862919","2138086510","2"
"2138086510","2006862919","2"
"2006862919","2146000536","2"
"2146000536","2006862919","2"
"1539014283","1785248781","1"
"1785248781","1539014283","1"
"1785248781","2138086510","1"
"2138086510","1785248781","1"
"1785248781","2146000536","1"
"2146000536","1785248781","1"
"1539014283","1963632049","4"
"1963632049","1539014283","4"
"1539014283","2562411138","4"
"2562411138","1539014283","4"
"1963632049","2146000536","3"
"2146000536","1963632049","3"
"1963632049","2562411138","4"
"2562411138","1963632049","4"
"2146000536","2562411138","3"
"2562411138","2146000536","3"
"1539014283","2120025091","1"
"2120025091","1539014283","1"
"1963632049","2120025091","1"
"2120025091","1963632049","1"
"2120025091","2562411138","1"
"2562411138","2120025091","1"
"1539014283","1690690333","1"
"1690690333","1539014283","1"
"1539014283","2047306733","1"
"2047306733","1539014283","1"
"1539014283","2403056236","2"
"2403056236","1539014283","2"
"1539014283","2564272953","1"
"2564272953","1539014283","1"
"1690690333","1963530924","1"
"1963530924","1690690333","1"
"1690690333","2047306733","1"
"2047306733","1690690333","1"
"1690690333","2060391340","1"
"2060391340","1690690333","1"
"1690690333","2268122231","1"
"2268122231","1690690333","1"
"1690690333","2403056236","1"
"2403056236","1690690333","1"
"1690690333","2562653830","1"
"2562653830","1690690333","1"
"1690690333","2564272953","1"
"2564272953","1690690333","1"
"1963530924","2047306733","1"
"2047306733","1963530924","1"
"1963530924","2403056236","1"
"2403056236","1963530924","1"
"1963530924","2564272953","1"
"2564272953","1963530924","1"
"2047306733","2060391340","1"
"2060391340","2047306733","1"
"2047306733","2268122231","1"
"2268122231","2047306733","1"
"2047306733","2403056236","1"
"2403056236","2047306733","1"
"2047306733","2562653830","1"
"2562653830","2047306733","1"
"2047306733","2564272953","1"
"2564272953","2047306733","1"
"2060391340","2403056236","1"
"2403056236","2060391340","1"
"2060391340","2564272953","1"
"2564272953","2060391340","1"
"2268122231","2403056236","1"
"2403056236","2268122231","1"
"2268122231","2564272953","1"
"2564272953","2268122231","1"
"2403056236","2562653830","1"
"2562653830","2403056236","1"
"2403056236","2564272953","1"
"2564272953","2403056236","1"
"2562653830","2564272953","1"
"2564272953","2562653830","1"
"1539014283","2117860662","2"
"2117860662","1539014283","2"
"1539014283","2294416056","2"
"2294416056","1539014283","2"
"1539014283","2294575494","2"
"2294575494","1539014283","2"
"1539014283","2295721670","2"
"2295721670","1539014283","2"
"1963530924","2117860662","2"
"2117860662","1963530924","2"
"1963530924","2294416056","2"
"2294416056","1963530924","2"
"1963530924","2294575494","2"
"2294575494","1963530924","2"
"1963530924","2295721670","2"
"2295721670","1963530924","2"
"2117860662","2294416056","2"
"2294416056","2117860662","2"
"2117860662","2294575494","2"
"2294575494","2117860662","2"
"2117860662","2295721670","2"
"2295721670","2117860662","2"
"2294416056","2294575494","2"
"2294575494","2294416056","2"
"2294416056","2295721670","2"
"2295721670","2294416056","2"
"2294575494","2295721670","2"
"2295721670","2294575494","2"
"1539014283","2257331259","2"
"2257331259","1539014283","2"
"1539014283","2411653028","2"
"2411653028","1539014283","2"
"1539014283","2412127063","2"
"2412127063","1539014283","2"
"2257331259","2411653028","2"
"2411653028","2257331259","2"
"2257331259","2412127063","2"
"2412127063","2257331259","2"
"2411653028","2412127063","2"
"2412127063","2411653028","2"
"1539014283","2109253230","1"
"2109253230","1539014283","1"
"1539014283","2265826105","1"
"2265826105","1539014283","1"
"1539014283","2306713871","1"
"2306713871","1539014283","1"
"1900053499","2109253230","1"
"2109253230","1900053499","1"
"1900053499","2265826105","1"
"2265826105","1900053499","1"
"1900053499","2306713871","1"
"2306713871","1900053499","1"
"2109253230","2138086510","1"
"2138086510","2109253230","1"
"2109253230","2146000536","1"
"2146000536","2109253230","1"
"2109253230","2265826105","1"
"2265826105","2109253230","1"
"2109253230","2306713871","1"
"2306713871","2109253230","1"
"2138086510","2265826105","1"
"2265826105","2138086510","1"
"2138086510","2306713871","1"
"2306713871","2138086510","1"
"2146000536","2265826105","1"
"2265826105","2146000536","1"
"2146000536","2306713871","1"
"2306713871","2146000536","1"
"2265826105","2306713871","1"
"2306713871","2265826105","1"
"1539014283","2102605284","1"
"2102605284","1539014283","1"
"1539014283","2151390607","1"
"2151390607","1539014283","1"
"1539014283","2530016648","1"
"2530016648","1539014283","1"
"1539014283","2530500168","1"
"2530500168","1539014283","1"
"2102605284","2151390607","1"
"2151390607","2102605284","1"
"2102605284","2257331259","1"
"2257331259","2102605284","1"
"2102605284","2411653028","1"
"2411653028","2102605284","1"
"2102605284","2412127063","1"
"2412127063","2102605284","1"
"2102605284","2530016648","1"
"2530016648","2102605284","1"
"2102605284","2530500168","1"
"2530500168","2102605284","1"
"2151390607","2257331259","1"
"2257331259","2151390607","1"
"2151390607","2411653028","1"
"2411653028","2151390607","1"
"2151390607","2412127063","1"
"2412127063","2151390607","1"
"2151390607","2530016648","1"
"2530016648","2151390607","1"
"2151390607","2530500168","1"
"2530500168","2151390607","1"
"2257331259","2530016648","1"
"2530016648","2257331259","1"
"2257331259","2530500168","1"
"2530500168","2257331259","1"
"2411653028","2530016648","1"
"2530016648","2411653028","1"
"2411653028","2530500168","1"
"2530500168","2411653028","1"
"2412127063","2530016648","1"
"2530016648","2412127063","1"
"2412127063","2530500168","1"
"2530500168","2412127063","1"
"2530016648","2530500168","1"
"2530500168","2530016648","1"
"1539014283","1987765614","2"
"1987765614","1539014283","2"
"1539014283","2761890134","1"
"2761890134","1539014283","1"
"1963530924","1987765614","1"
"1987765614","1963530924","1"
"1963530924","2761890134","1"
"2761890134","1963530924","1"
"1987765614","2041811602","1"
"2041811602","1987765614","1"
"1987765614","2125020474","1"
"2125020474","1987765614","1"
"1987765614","2264310793","1"
"2264310793","1987765614","1"
"1987765614","2268122231","1"
"2268122231","1987765614","1"
"1987765614","2612384872","1"
"2612384872","1987765614","1"
"1987765614","2761890134","1"
"2761890134","1987765614","1"
"1987765614","2949681511","1"
"2949681511","1987765614","1"
"2041811602","2761890134","1"
"2761890134","2041811602","1"
"2125020474","2761890134","1"
"2761890134","2125020474","1"
"2125020474","2949681511","1"
"2949681511","2125020474","1"
"2264310793","2761890134","1"
"2761890134","2264310793","1"
"2268122231","2761890134","1"
"2761890134","2268122231","1"
"2612384872","2761890134","1"
"2761890134","2612384872","1"
"2612384872","2949681511","1"
"2949681511","2612384872","1"
"2761890134","2949681511","1"
"2949681511","2761890134","1"
