"2251937356","2076420186","1"
"2076420186","2251937356","1"
"2251937356","2221583000","1"
"2221583000","2251937356","1"
"2251937356","2294044511","1"
"2294044511","2251937356","1"
"2251937356","2948658362","1"
"2948658362","2251937356","1"
"2076420186","2221583000","1"
"2221583000","2076420186","1"
"2076420186","2294044511","1"
"2294044511","2076420186","1"
"2076420186","2948658362","1"
"2948658362","2076420186","1"
"2221583000","2294044511","1"
"2294044511","2221583000","1"
"2221583000","2948658362","1"
"2948658362","2221583000","1"
"2294044511","2948658362","1"
"2948658362","2294044511","1"
"2251937356","1244957687","8"
"1244957687","2251937356","8"
"2251937356","2071700171","11"
"2071700171","2251937356","11"
"2251937356","2100370402","1"
"2100370402","2251937356","1"
"2251937356","2171213583","1"
"2171213583","2251937356","1"
"1244957687","2071700171","6"
"2071700171","1244957687","6"
"1244957687","2100370402","1"
"2100370402","1244957687","1"
"1244957687","2171213583","1"
"2171213583","1244957687","1"
"2071700171","2100370402","1"
"2100370402","2071700171","1"
"2071700171","2171213583","1"
"2171213583","2071700171","1"
"2100370402","2171213583","1"
"2171213583","2100370402","1"
"2251937356","2119979103","15"
"2119979103","2251937356","15"
"2251937356","2155817728","7"
"2155817728","2251937356","7"
"2119979103","2155817728","5"
"2155817728","2119979103","5"
"2251937356","2069554337","4"
"2069554337","2251937356","4"
"2251937356","2167526056","5"
"2167526056","2251937356","5"
"2069554337","2167526056","4"
"2167526056","2069554337","4"
"2251937356","2143579066","7"
"2143579066","2251937356","7"
"2251937356","1569396467","8"
"1569396467","2251937356","8"
"2251937356","2101801968","1"
"2101801968","2251937356","1"
"1569396467","2101801968","1"
"2101801968","1569396467","1"
"2251937356","674815090","4"
"674815090","2251937356","4"
"2251937356","1983958701","9"
"1983958701","2251937356","9"
"2251937356","2117731237","5"
"2117731237","2251937356","5"
"2251937356","2119021907","6"
"2119021907","2251937356","6"
"2251937356","2168029506","6"
"2168029506","2251937356","6"
"674815090","1244957687","2"
"1244957687","674815090","2"
"674815090","1983958701","4"
"1983958701","674815090","4"
"674815090","2117731237","3"
"2117731237","674815090","3"
"674815090","2119021907","3"
"2119021907","674815090","3"
"674815090","2168029506","2"
"2168029506","674815090","2"
"1244957687","1983958701","4"
"1983958701","1244957687","4"
"1244957687","2117731237","4"
"2117731237","1244957687","4"
"1244957687","2119021907","4"
"2119021907","1244957687","4"
"1244957687","2168029506","4"
"2168029506","1244957687","4"
"1983958701","2117731237","5"
"2117731237","1983958701","5"
"1983958701","2119021907","6"
"2119021907","1983958701","6"
"1983958701","2168029506","6"
"2168029506","1983958701","6"
"2117731237","2119021907","4"
"2119021907","2117731237","4"
"2117731237","2168029506","4"
"2168029506","2117731237","4"
"2119021907","2168029506","4"
"2168029506","2119021907","4"
"2251937356","724208701","2"
"724208701","2251937356","2"
"2251937356","2040147795","6"
"2040147795","2251937356","6"
"724208701","2040147795","2"
"2040147795","724208701","2"
"724208701","2119979103","2"
"2119979103","724208701","2"
"2040147795","2119979103","5"
"2119979103","2040147795","5"
"2251937356","2021009665","1"
"2021009665","2251937356","1"
"2251937356","2466192849","4"
"2466192849","2251937356","4"
"2251937356","2973839488","1"
"2973839488","2251937356","1"
"2021009665","2466192849","1"
"2466192849","2021009665","1"
"2021009665","2973839488","1"
"2973839488","2021009665","1"
"2466192849","2973839488","1"
"2973839488","2466192849","1"
"2251937356","2098270109","2"
"2098270109","2251937356","2"
"1244957687","2098270109","2"
"2098270109","1244957687","2"
"1983958701","2071700171","2"
"2071700171","1983958701","2"
"1983958701","2098270109","2"
"2098270109","1983958701","2"
"2071700171","2098270109","2"
"2098270109","2071700171","2"
"2071700171","2117731237","2"
"2117731237","2071700171","2"
"2071700171","2119021907","2"
"2119021907","2071700171","2"
"2071700171","2168029506","2"
"2168029506","2071700171","2"
"2098270109","2117731237","2"
"2117731237","2098270109","2"
"2098270109","2119021907","2"
"2119021907","2098270109","2"
"2098270109","2168029506","2"
"2168029506","2098270109","2"
"2251937356","2044174557","8"
"2044174557","2251937356","8"
"2251937356","2114630758","1"
"2114630758","2251937356","1"
"2251937356","2397203458","7"
"2397203458","2251937356","7"
"2044174557","2114630758","1"
"2114630758","2044174557","1"
"2044174557","2397203458","7"
"2397203458","2044174557","7"
"2114630758","2397203458","1"
"2397203458","2114630758","1"
"2251937356","1971740420","14"
"1971740420","2251937356","14"
"2251937356","2123574327","4"
"2123574327","2251937356","4"
"2251937356","2163733436","8"
"2163733436","2251937356","8"
"2251937356","2304781527","4"
"2304781527","2251937356","4"
"1971740420","2044174557","5"
"2044174557","1971740420","5"
"1971740420","2123574327","4"
"2123574327","1971740420","4"
"1971740420","2143579066","5"
"2143579066","1971740420","5"
"1971740420","2163733436","4"
"2163733436","1971740420","4"
"1971740420","2304781527","4"
"2304781527","1971740420","4"
"1971740420","2397203458","5"
"2397203458","1971740420","5"
"2044174557","2123574327","4"
"2123574327","2044174557","4"
"2044174557","2143579066","5"
"2143579066","2044174557","5"
"2044174557","2163733436","4"
"2163733436","2044174557","4"
"2044174557","2304781527","4"
"2304781527","2044174557","4"
"2123574327","2143579066","4"
"2143579066","2123574327","4"
"2123574327","2163733436","4"
"2163733436","2123574327","4"
"2123574327","2304781527","4"
"2304781527","2123574327","4"
"2123574327","2397203458","4"
"2397203458","2123574327","4"
"2143579066","2163733436","4"
"2163733436","2143579066","4"
"2143579066","2304781527","4"
"2304781527","2143579066","4"
"2143579066","2397203458","5"
"2397203458","2143579066","5"
"2163733436","2304781527","4"
"2304781527","2163733436","4"
"2163733436","2397203458","4"
"2397203458","2163733436","4"
"2304781527","2397203458","4"
"2397203458","2304781527","4"
"2251937356","1926997332","1"
"1926997332","2251937356","1"
"2251937356","2431513145","2"
"2431513145","2251937356","2"
"2251937356","2669982992","1"
"2669982992","2251937356","1"
"1926997332","2040147795","1"
"2040147795","1926997332","1"
"1926997332","2431513145","1"
"2431513145","1926997332","1"
"1926997332","2669982992","1"
"2669982992","1926997332","1"
"2040147795","2431513145","2"
"2431513145","2040147795","2"
"2040147795","2669982992","1"
"2669982992","2040147795","1"
"2431513145","2669982992","1"
"2669982992","2431513145","1"
"2251937356","2344376455","1"
"2344376455","2251937356","1"
"2251937356","2576326269","1"
"2576326269","2251937356","1"
"2119979103","2344376455","1"
"2344376455","2119979103","1"
"2119979103","2576326269","1"
"2576326269","2119979103","1"
"2344376455","2576326269","1"
"2576326269","2344376455","1"
"2251937356","172008907","7"
"172008907","2251937356","7"
"2251937356","1859118659","9"
"1859118659","2251937356","9"
"2251937356","2032730976","8"
"2032730976","2251937356","8"
"172008907","1859118659","3"
"1859118659","172008907","3"
"172008907","2032730976","3"
"2032730976","172008907","3"
"1859118659","2032730976","4"
"2032730976","1859118659","4"
"2251937356","1607658853","3"
"1607658853","2251937356","3"
"2251937356","2246443136","2"
"2246443136","2251937356","2"
"2251937356","2658682763","1"
"2658682763","2251937356","1"
"1607658853","2071700171","2"
"2071700171","1607658853","2"
"1607658853","2246443136","1"
"2246443136","1607658853","1"
"1607658853","2658682763","1"
"2658682763","1607658853","1"
"2071700171","2246443136","2"
"2246443136","2071700171","2"
"2071700171","2658682763","1"
"2658682763","2071700171","1"
"2246443136","2658682763","1"
"2658682763","2246443136","1"
"2251937356","1994993811","2"
"1994993811","2251937356","2"
"2251937356","2038630165","2"
"2038630165","2251937356","2"
"1994993811","2038630165","2"
"2038630165","1994993811","2"
"2251937356","1311744216","3"
"1311744216","2251937356","3"
"2251937356","2057730414","4"
"2057730414","2251937356","4"
"1311744216","2057730414","2"
"2057730414","1311744216","2"
"1311744216","2163733436","1"
"2163733436","1311744216","1"
"2057730414","2163733436","1"
"2163733436","2057730414","1"
"2251937356","2126099377","9"
"2126099377","2251937356","9"
"2251937356","2680698662","1"
"2680698662","2251937356","1"
"2126099377","2680698662","1"
"2680698662","2126099377","1"
"2251937356","2114773758","2"
"2114773758","2251937356","2"
"2251937356","2151693321","3"
"2151693321","2251937356","3"
"2251937356","2156664093","1"
"2156664093","2251937356","1"
"1859118659","2114773758","1"
"2114773758","1859118659","1"
"1859118659","2151693321","1"
"2151693321","1859118659","1"
"1859118659","2156664093","1"
"2156664093","1859118659","1"
"2114773758","2151693321","2"
"2151693321","2114773758","2"
"2114773758","2156664093","1"
"2156664093","2114773758","1"
"2151693321","2156664093","1"
"2156664093","2151693321","1"
"2251937356","79231506","2"
"79231506","2251937356","2"
"2251937356","2304140017","2"
"2304140017","2251937356","2"
"2251937356","2308794863","3"
"2308794863","2251937356","3"
"79231506","2304140017","2"
"2304140017","79231506","2"
"79231506","2308794863","2"
"2308794863","79231506","2"
"2304140017","2308794863","2"
"2308794863","2304140017","2"
"1244957687","2119979103","2"
"2119979103","1244957687","2"
"2071700171","2119979103","3"
"2119979103","2071700171","3"
"2251937356","2225842653","1"
"2225842653","2251937356","1"
"2119979103","2225842653","1"
"2225842653","2119979103","1"
"2251937356","1933271057","1"
"1933271057","2251937356","1"
"2251937356","2009385493","1"
"2009385493","2251937356","1"
"2251937356","2200995000","1"
"2200995000","2251937356","1"
"1933271057","2009385493","1"
"2009385493","1933271057","1"
"1933271057","2167526056","1"
"2167526056","1933271057","1"
"1933271057","2200995000","1"
"2200995000","1933271057","1"
"2009385493","2167526056","1"
"2167526056","2009385493","1"
"2009385493","2200995000","1"
"2200995000","2009385493","1"
"2167526056","2200995000","1"
"2200995000","2167526056","1"
"2251937356","1984794018","1"
"1984794018","2251937356","1"
"674815090","1984794018","1"
"1984794018","674815090","1"
"1244957687","1984794018","1"
"1984794018","1244957687","1"
"1983958701","1984794018","1"
"1984794018","1983958701","1"
"1984794018","2117731237","1"
"2117731237","1984794018","1"
"1984794018","2119021907","1"
"2119021907","1984794018","1"
"1984794018","2168029506","1"
"2168029506","1984794018","1"
"2251937356","2296980435","11"
"2296980435","2251937356","11"
"2126099377","2296980435","1"
"2296980435","2126099377","1"
"2251937356","2101395015","8"
"2101395015","2251937356","8"
"2251937356","2109546381","2"
"2109546381","2251937356","2"
"2251937356","2154056303","2"
"2154056303","2251937356","2"
"2251937356","2523799211","2"
"2523799211","2251937356","2"
"1983958701","2101395015","2"
"2101395015","1983958701","2"
"1983958701","2109546381","2"
"2109546381","1983958701","2"
"1983958701","2154056303","2"
"2154056303","1983958701","2"
"1983958701","2523799211","2"
"2523799211","1983958701","2"
"2101395015","2109546381","2"
"2109546381","2101395015","2"
"2101395015","2154056303","2"
"2154056303","2101395015","2"
"2101395015","2168029506","2"
"2168029506","2101395015","2"
"2101395015","2523799211","2"
"2523799211","2101395015","2"
"2109546381","2154056303","2"
"2154056303","2109546381","2"
"2109546381","2168029506","2"
"2168029506","2109546381","2"
"2109546381","2523799211","2"
"2523799211","2109546381","2"
"2154056303","2168029506","2"
"2168029506","2154056303","2"
"2154056303","2523799211","2"
"2523799211","2154056303","2"
"2168029506","2523799211","2"
"2523799211","2168029506","2"
"2251937356","2159107908","8"
"2159107908","2251937356","8"
"2251937356","2499163644","3"
"2499163644","2251937356","3"
"2159107908","2163733436","3"
"2163733436","2159107908","3"
"2159107908","2499163644","1"
"2499163644","2159107908","1"
"2163733436","2499163644","3"
"2499163644","2163733436","3"
"2251937356","229521405","2"
"229521405","2251937356","2"
"2251937356","1534972746","1"
"1534972746","2251937356","1"
"2251937356","2004403224","1"
"2004403224","2251937356","1"
"2251937356","2051023350","1"
"2051023350","2251937356","1"
"2251937356","2080383553","1"
"2080383553","2251937356","1"
"172008907","229521405","1"
"229521405","172008907","1"
"172008907","1534972746","1"
"1534972746","172008907","1"
"172008907","2004403224","1"
"2004403224","172008907","1"
"172008907","2051023350","1"
"2051023350","172008907","1"
"172008907","2080383553","1"
"2080383553","172008907","1"
"172008907","2155817728","2"
"2155817728","172008907","2"
"172008907","2159107908","1"
"2159107908","172008907","1"
"229521405","1534972746","1"
"1534972746","229521405","1"
"229521405","2004403224","1"
"2004403224","229521405","1"
"229521405","2051023350","1"
"2051023350","229521405","1"
"229521405","2080383553","1"
"2080383553","229521405","1"
"229521405","2155817728","1"
"2155817728","229521405","1"
"229521405","2159107908","2"
"2159107908","229521405","2"
"1534972746","2004403224","1"
"2004403224","1534972746","1"
"1534972746","2051023350","1"
"2051023350","1534972746","1"
"1534972746","2080383553","1"
"2080383553","1534972746","1"
"1534972746","2155817728","1"
"2155817728","1534972746","1"
"1534972746","2159107908","1"
"2159107908","1534972746","1"
"2004403224","2051023350","1"
"2051023350","2004403224","1"
"2004403224","2080383553","1"
"2080383553","2004403224","1"
"2004403224","2155817728","1"
"2155817728","2004403224","1"
"2004403224","2159107908","1"
"2159107908","2004403224","1"
"2051023350","2080383553","1"
"2080383553","2051023350","1"
"2051023350","2155817728","1"
"2155817728","2051023350","1"
"2051023350","2159107908","1"
"2159107908","2051023350","1"
"2080383553","2155817728","1"
"2155817728","2080383553","1"
"2080383553","2159107908","1"
"2159107908","2080383553","1"
"2155817728","2159107908","1"
"2159107908","2155817728","1"
"2251937356","334059555","6"
"334059555","2251937356","6"
"334059555","1971740420","4"
"1971740420","334059555","4"
"2251937356","310869021","3"
"310869021","2251937356","3"
"2251937356","2471487312","2"
"2471487312","2251937356","2"
"310869021","2069554337","2"
"2069554337","310869021","2"
"310869021","2167526056","2"
"2167526056","310869021","2"
"310869021","2471487312","2"
"2471487312","310869021","2"
"2069554337","2471487312","2"
"2471487312","2069554337","2"
"2167526056","2471487312","2"
"2471487312","2167526056","2"
"2251937356","2097743318","1"
"2097743318","2251937356","1"
"2251937356","2098553916","2"
"2098553916","2251937356","2"
"2251937356","2101360432","1"
"2101360432","2251937356","1"
"2251937356","2150977245","1"
"2150977245","2251937356","1"
"2251937356","2250762607","1"
"2250762607","2251937356","1"
"2251937356","2657909788","1"
"2657909788","2251937356","1"
"1971740420","1983958701","1"
"1983958701","1971740420","1"
"1971740420","2097743318","1"
"2097743318","1971740420","1"
"1971740420","2098553916","1"
"2098553916","1971740420","1"
"1971740420","2101360432","1"
"2101360432","1971740420","1"
"1971740420","2119021907","1"
"2119021907","1971740420","1"
"1971740420","2150977245","1"
"2150977245","1971740420","1"
"1971740420","2250762607","1"
"2250762607","1971740420","1"
"1971740420","2657909788","1"
"2657909788","1971740420","1"
"1983958701","2097743318","1"
"2097743318","1983958701","1"
"1983958701","2098553916","1"
"2098553916","1983958701","1"
"1983958701","2101360432","1"
"2101360432","1983958701","1"
"1983958701","2150977245","1"
"2150977245","1983958701","1"
"1983958701","2250762607","1"
"2250762607","1983958701","1"
"1983958701","2657909788","1"
"2657909788","1983958701","1"
"2097743318","2098553916","1"
"2098553916","2097743318","1"
"2097743318","2101360432","1"
"2101360432","2097743318","1"
"2097743318","2119021907","1"
"2119021907","2097743318","1"
"2097743318","2150977245","1"
"2150977245","2097743318","1"
"2097743318","2250762607","1"
"2250762607","2097743318","1"
"2097743318","2657909788","1"
"2657909788","2097743318","1"
"2098553916","2101360432","1"
"2101360432","2098553916","1"
"2098553916","2119021907","1"
"2119021907","2098553916","1"
"2098553916","2150977245","1"
"2150977245","2098553916","1"
"2098553916","2250762607","1"
"2250762607","2098553916","1"
"2098553916","2657909788","1"
"2657909788","2098553916","1"
"2101360432","2119021907","1"
"2119021907","2101360432","1"
"2101360432","2150977245","1"
"2150977245","2101360432","1"
"2101360432","2250762607","1"
"2250762607","2101360432","1"
"2101360432","2657909788","1"
"2657909788","2101360432","1"
"2119021907","2150977245","1"
"2150977245","2119021907","1"
"2119021907","2250762607","1"
"2250762607","2119021907","1"
"2119021907","2657909788","1"
"2657909788","2119021907","1"
"2150977245","2250762607","1"
"2250762607","2150977245","1"
"2150977245","2657909788","1"
"2657909788","2150977245","1"
"2250762607","2657909788","1"
"2657909788","2250762607","1"
"2251937356","2094985629","1"
"2094985629","2251937356","1"
"334059555","2094985629","1"
"2094985629","334059555","1"
"2251937356","2582990465","1"
"2582990465","2251937356","1"
"2466192849","2582990465","1"
"2582990465","2466192849","1"
"2251937356","2025789373","1"
"2025789373","2251937356","1"
"2251937356","2101644873","1"
"2101644873","2251937356","1"
"2251937356","2137746839","1"
"2137746839","2251937356","1"
"2251937356","2317909095","1"
"2317909095","2251937356","1"
"1971740420","2025789373","1"
"2025789373","1971740420","1"
"1971740420","2032730976","1"
"2032730976","1971740420","1"
"1971740420","2101644873","1"
"2101644873","1971740420","1"
"1971740420","2126099377","3"
"2126099377","1971740420","3"
"1971740420","2137746839","1"
"2137746839","1971740420","1"
"1971740420","2317909095","1"
"2317909095","1971740420","1"
"2025789373","2032730976","1"
"2032730976","2025789373","1"
"2025789373","2101644873","1"
"2101644873","2025789373","1"
"2025789373","2126099377","1"
"2126099377","2025789373","1"
"2025789373","2137746839","1"
"2137746839","2025789373","1"
"2025789373","2317909095","1"
"2317909095","2025789373","1"
"2032730976","2101644873","1"
"2101644873","2032730976","1"
"2032730976","2126099377","1"
"2126099377","2032730976","1"
"2032730976","2137746839","1"
"2137746839","2032730976","1"
"2032730976","2317909095","1"
"2317909095","2032730976","1"
"2101644873","2126099377","1"
"2126099377","2101644873","1"
"2101644873","2137746839","1"
"2137746839","2101644873","1"
"2101644873","2317909095","1"
"2317909095","2101644873","1"
"2126099377","2137746839","1"
"2137746839","2126099377","1"
"2126099377","2317909095","1"
"2317909095","2126099377","1"
"2137746839","2317909095","1"
"2317909095","2137746839","1"
"172008907","310869021","1"
"310869021","172008907","1"
"172008907","1971740420","1"
"1971740420","172008907","1"
"310869021","1971740420","1"
"1971740420","310869021","1"
"2251937356","162880119","5"
"162880119","2251937356","5"
"2251937356","2144915451","1"
"2144915451","2251937356","1"
"162880119","2144915451","1"
"2144915451","162880119","1"
"2251937356","2222414555","1"
"2222414555","2251937356","1"
"2251937356","2310204020","1"
"2310204020","2251937356","1"
"2251937356","2536887956","1"
"2536887956","2251937356","1"
"2222414555","2310204020","1"
"2310204020","2222414555","1"
"2222414555","2536887956","1"
"2536887956","2222414555","1"
"2310204020","2536887956","1"
"2536887956","2310204020","1"
"2071700171","2155817728","1"
"2155817728","2071700171","1"
"1971740420","2057730414","1"
"2057730414","1971740420","1"
"2057730414","2126099377","1"
"2126099377","2057730414","1"
"2251937356","2021491734","2"
"2021491734","2251937356","2"
"2251937356","2115520157","5"
"2115520157","2251937356","5"
"2251937356","2974761389","1"
"2974761389","2251937356","1"
"2021491734","2115520157","1"
"2115520157","2021491734","1"
"2021491734","2296980435","1"
"2296980435","2021491734","1"
"2021491734","2974761389","1"
"2974761389","2021491734","1"
"2115520157","2296980435","2"
"2296980435","2115520157","2"
"2115520157","2974761389","1"
"2974761389","2115520157","1"
"2296980435","2974761389","1"
"2974761389","2296980435","1"
"2251937356","2015875277","1"
"2015875277","2251937356","1"
"2251937356","2295912225","1"
"2295912225","2251937356","1"
"1607658853","2015875277","1"
"2015875277","1607658853","1"
"1607658853","2295912225","1"
"2295912225","1607658853","1"
"2015875277","2295912225","1"
"2295912225","2015875277","1"
"2251937356","2130967833","1"
"2130967833","2251937356","1"
"2251937356","2227303570","1"
"2227303570","2251937356","1"
"2130967833","2227303570","1"
"2227303570","2130967833","1"
"2251937356","2117810699","3"
"2117810699","2251937356","3"
"2069554337","2117810699","1"
"2117810699","2069554337","1"
"2117810699","2167526056","1"
"2167526056","2117810699","1"
"2098553916","2308794863","1"
"2308794863","2098553916","1"
"2251937356","116309673","1"
"116309673","2251937356","1"
"2251937356","1933468442","1"
"1933468442","2251937356","1"
"2251937356","2168325223","2"
"2168325223","2251937356","2"
"2251937356","2229933944","1"
"2229933944","2251937356","1"
"2251937356","2240119098","1"
"2240119098","2251937356","1"
"2251937356","2512011810","1"
"2512011810","2251937356","1"
"2251937356","2653807716","1"
"2653807716","2251937356","1"
"2251937356","2670693436","1"
"2670693436","2251937356","1"
"2251937356","2713542757","1"
"2713542757","2251937356","1"
"2251937356","2917980842","1"
"2917980842","2251937356","1"
"116309673","1933468442","1"
"1933468442","116309673","1"
"116309673","2168325223","1"
"2168325223","116309673","1"
"116309673","2229933944","1"
"2229933944","116309673","1"
"116309673","2240119098","1"
"2240119098","116309673","1"
"116309673","2512011810","1"
"2512011810","116309673","1"
"116309673","2653807716","1"
"2653807716","116309673","1"
"116309673","2670693436","1"
"2670693436","116309673","1"
"116309673","2713542757","1"
"2713542757","116309673","1"
"116309673","2917980842","1"
"2917980842","116309673","1"
"1933468442","2168325223","1"
"2168325223","1933468442","1"
"1933468442","2229933944","1"
"2229933944","1933468442","1"
"1933468442","2240119098","1"
"2240119098","1933468442","1"
"1933468442","2512011810","1"
"2512011810","1933468442","1"
"1933468442","2653807716","1"
"2653807716","1933468442","1"
"1933468442","2670693436","1"
"2670693436","1933468442","1"
"1933468442","2713542757","1"
"2713542757","1933468442","1"
"1933468442","2917980842","1"
"2917980842","1933468442","1"
"2168325223","2229933944","1"
"2229933944","2168325223","1"
"2168325223","2240119098","1"
"2240119098","2168325223","1"
"2168325223","2512011810","1"
"2512011810","2168325223","1"
"2168325223","2653807716","1"
"2653807716","2168325223","1"
"2168325223","2670693436","1"
"2670693436","2168325223","1"
"2168325223","2713542757","1"
"2713542757","2168325223","1"
"2168325223","2917980842","1"
"2917980842","2168325223","1"
"2229933944","2240119098","1"
"2240119098","2229933944","1"
"2229933944","2512011810","1"
"2512011810","2229933944","1"
"2229933944","2653807716","1"
"2653807716","2229933944","1"
"2229933944","2670693436","1"
"2670693436","2229933944","1"
"2229933944","2713542757","1"
"2713542757","2229933944","1"
"2229933944","2917980842","1"
"2917980842","2229933944","1"
"2240119098","2512011810","1"
"2512011810","2240119098","1"
"2240119098","2653807716","1"
"2653807716","2240119098","1"
"2240119098","2670693436","1"
"2670693436","2240119098","1"
"2240119098","2713542757","1"
"2713542757","2240119098","1"
"2240119098","2917980842","1"
"2917980842","2240119098","1"
"2512011810","2653807716","1"
"2653807716","2512011810","1"
"2512011810","2670693436","1"
"2670693436","2512011810","1"
"2512011810","2713542757","1"
"2713542757","2512011810","1"
"2512011810","2917980842","1"
"2917980842","2512011810","1"
"2653807716","2670693436","1"
"2670693436","2653807716","1"
"2653807716","2713542757","1"
"2713542757","2653807716","1"
"2653807716","2917980842","1"
"2917980842","2653807716","1"
"2670693436","2713542757","1"
"2713542757","2670693436","1"
"2670693436","2917980842","1"
"2917980842","2670693436","1"
"2713542757","2917980842","1"
"2917980842","2713542757","1"
"2251937356","2189071755","1"
"2189071755","2251937356","1"
"2251937356","2097918719","1"
"2097918719","2251937356","1"
"310869021","1569396467","1"
"1569396467","310869021","1"
"310869021","2097918719","1"
"2097918719","310869021","1"
"1569396467","2069554337","1"
"2069554337","1569396467","1"
"1569396467","2097918719","1"
"2097918719","1569396467","1"
"1569396467","2167526056","1"
"2167526056","1569396467","1"
"1569396467","2471487312","1"
"2471487312","1569396467","1"
"2069554337","2097918719","1"
"2097918719","2069554337","1"
"2097918719","2167526056","1"
"2167526056","2097918719","1"
"2097918719","2471487312","1"
"2471487312","2097918719","1"
"1244957687","2246443136","1"
"2246443136","1244957687","1"
"1244957687","2466192849","1"
"2466192849","1244957687","1"
"2071700171","2466192849","1"
"2466192849","2071700171","1"
"2246443136","2466192849","1"
"2466192849","2246443136","1"
"334059555","2126099377","1"
"2126099377","334059555","1"
"2021491734","2101395015","1"
"2101395015","2021491734","1"
"2021491734","2143579066","1"
"2143579066","2021491734","1"
"2101395015","2143579066","1"
"2143579066","2101395015","1"
"2251937356","89785269","1"
"89785269","2251937356","1"
"2251937356","2111668110","1"
"2111668110","2251937356","1"
"2251937356","2116787695","1"
"2116787695","2251937356","1"
"89785269","162880119","1"
"162880119","89785269","1"
"89785269","229521405","1"
"229521405","89785269","1"
"89785269","1971740420","1"
"1971740420","89785269","1"
"89785269","2111668110","1"
"2111668110","89785269","1"
"89785269","2116787695","1"
"2116787695","89785269","1"
"89785269","2159107908","1"
"2159107908","89785269","1"
"162880119","229521405","1"
"229521405","162880119","1"
"162880119","1971740420","1"
"1971740420","162880119","1"
"162880119","2111668110","1"
"2111668110","162880119","1"
"162880119","2116787695","1"
"2116787695","162880119","1"
"162880119","2159107908","1"
"2159107908","162880119","1"
"229521405","1971740420","1"
"1971740420","229521405","1"
"229521405","2111668110","1"
"2111668110","229521405","1"
"229521405","2116787695","1"
"2116787695","229521405","1"
"1971740420","2111668110","1"
"2111668110","1971740420","1"
"1971740420","2116787695","1"
"2116787695","1971740420","1"
"1971740420","2159107908","1"
"2159107908","1971740420","1"
"2111668110","2116787695","1"
"2116787695","2111668110","1"
"2111668110","2159107908","1"
"2159107908","2111668110","1"
"2116787695","2159107908","1"
"2159107908","2116787695","1"
"2251937356","767664592","2"
"767664592","2251937356","2"
"767664592","2032730976","1"
"2032730976","767664592","1"
"767664592","2115520157","2"
"2115520157","767664592","2"
"2032730976","2115520157","1"
"2115520157","2032730976","1"
"2251937356","2223569029","1"
"2223569029","2251937356","1"
"2251937356","2303763447","1"
"2303763447","2251937356","1"
"2251937356","2306371694","1"
"2306371694","2251937356","1"
"2251937356","2530673360","1"
"2530673360","2251937356","1"
"2223569029","2303763447","1"
"2303763447","2223569029","1"
"2223569029","2306371694","1"
"2306371694","2223569029","1"
"2223569029","2530673360","1"
"2530673360","2223569029","1"
"2303763447","2306371694","1"
"2306371694","2303763447","1"
"2303763447","2530673360","1"
"2530673360","2303763447","1"
"2306371694","2530673360","1"
"2530673360","2306371694","1"
"2251937356","2622092860","1"
"2622092860","2251937356","1"
"2071700171","2622092860","1"
"2622092860","2071700171","1"
"2251937356","2131324221","1"
"2131324221","2251937356","1"
"2251937356","2892908900","1"
"2892908900","2251937356","1"
"2071700171","2131324221","1"
"2131324221","2071700171","1"
"2071700171","2892908900","1"
"2892908900","2071700171","1"
"2131324221","2892908900","1"
"2892908900","2131324221","1"
"2251937356","2303321604","3"
"2303321604","2251937356","3"
"2032730976","2114773758","1"
"2114773758","2032730976","1"
"2032730976","2151693321","1"
"2151693321","2032730976","1"
"2032730976","2303321604","1"
"2303321604","2032730976","1"
"2114773758","2303321604","1"
"2303321604","2114773758","1"
"2151693321","2303321604","1"
"2303321604","2151693321","1"
"2151693321","2159107908","1"
"2159107908","2151693321","1"
"2151693321","2163733436","1"
"2163733436","2151693321","1"
"2251937356","2227069724","1"
"2227069724","2251937356","1"
"2044174557","2227069724","1"
"2227069724","2044174557","1"
"2227069724","2397203458","1"
"2397203458","2227069724","1"
"2251937356","2145257397","1"
"2145257397","2251937356","1"
"2251937356","2223111602","1"
"2223111602","2251937356","1"
"1569396467","2145257397","1"
"2145257397","1569396467","1"
"1569396467","2223111602","1"
"2223111602","1569396467","1"
"2145257397","2223111602","1"
"2223111602","2145257397","1"
"2251937356","2058405069","2"
"2058405069","2251937356","2"
"2251937356","2230275460","1"
"2230275460","2251937356","1"
"2251937356","2493958360","1"
"2493958360","2251937356","1"
"2058405069","2230275460","1"
"2230275460","2058405069","1"
"2058405069","2493958360","1"
"2493958360","2058405069","1"
"2230275460","2493958360","1"
"2493958360","2230275460","1"
"2251937356","2115951828","1"
"2115951828","2251937356","1"
"2251937356","2222331187","1"
"2222331187","2251937356","1"
"2115951828","2222331187","1"
"2222331187","2115951828","1"
"1569396467","2058405069","1"
"2058405069","1569396467","1"
"2251937356","2665524024","1"
"2665524024","2251937356","1"
"2251937356","2677757848","1"
"2677757848","2251937356","1"
"1569396467","2159107908","2"
"2159107908","1569396467","2"
"1569396467","2665524024","1"
"2665524024","1569396467","1"
"1569396467","2677757848","1"
"2677757848","1569396467","1"
"2159107908","2665524024","1"
"2665524024","2159107908","1"
"2159107908","2677757848","1"
"2677757848","2159107908","1"
"2665524024","2677757848","1"
"2677757848","2665524024","1"
"2251937356","2620204746","1"
"2620204746","2251937356","1"
"1607658853","2620204746","1"
"2620204746","1607658853","1"
"2071700171","2620204746","1"
"2620204746","2071700171","1"
"2251937356","2152938059","1"
"2152938059","2251937356","1"
"2251937356","2275098959","1"
"2275098959","2251937356","1"
"2057730414","2152938059","1"
"2152938059","2057730414","1"
"2057730414","2275098959","1"
"2275098959","2057730414","1"
"2057730414","2296980435","1"
"2296980435","2057730414","1"
"2152938059","2275098959","1"
"2275098959","2152938059","1"
"2152938059","2296980435","1"
"2296980435","2152938059","1"
"2275098959","2296980435","1"
"2296980435","2275098959","1"
"2251937356","2119983125","1"
"2119983125","2251937356","1"
"2251937356","2145386857","1"
"2145386857","2251937356","1"
"2251937356","2146056420","1"
"2146056420","2251937356","1"
"2251937356","2308517795","1"
"2308517795","2251937356","1"
"1859118659","2119983125","1"
"2119983125","1859118659","1"
"1859118659","2145386857","1"
"2145386857","1859118659","1"
"1859118659","2146056420","1"
"2146056420","1859118659","1"
"1859118659","2308517795","1"
"2308517795","1859118659","1"
"2119983125","2145386857","1"
"2145386857","2119983125","1"
"2119983125","2146056420","1"
"2146056420","2119983125","1"
"2119983125","2308517795","1"
"2308517795","2119983125","1"
"2145386857","2146056420","1"
"2146056420","2145386857","1"
"2145386857","2308517795","1"
"2308517795","2145386857","1"
"2146056420","2308517795","1"
"2308517795","2146056420","1"
"2251937356","2226101813","1"
"2226101813","2251937356","1"
"2251937356","2490155953","1"
"2490155953","2251937356","1"
"172008907","2226101813","1"
"2226101813","172008907","1"
"172008907","2490155953","1"
"2490155953","172008907","1"
"2226101813","2490155953","1"
"2490155953","2226101813","1"
"2119979103","2159107908","1"
"2159107908","2119979103","1"
"1569396467","2119979103","1"
"2119979103","1569396467","1"
"1569396467","2155817728","1"
"2155817728","1569396467","1"
"2251937356","2615841255","1"
"2615841255","2251937356","1"
"1569396467","2117810699","2"
"2117810699","1569396467","2"
"1569396467","2615841255","1"
"2615841255","1569396467","1"
"2117810699","2159107908","1"
"2159107908","2117810699","1"
"2117810699","2615841255","1"
"2615841255","2117810699","1"
"2159107908","2615841255","1"
"2615841255","2159107908","1"
"2251937356","2166234591","1"
"2166234591","2251937356","1"
"2251937356","2423028394","1"
"2423028394","2251937356","1"
"2166234591","2423028394","1"
"2423028394","2166234591","1"
"162880119","2296980435","1"
"2296980435","162880119","1"
"2251937356","130033679","2"
"130033679","2251937356","2"
"2251937356","2079370109","2"
"2079370109","2251937356","2"
"2251937356","2230663846","1"
"2230663846","2251937356","1"
"2251937356","2320270846","2"
"2320270846","2251937356","2"
"130033679","1311744216","1"
"1311744216","130033679","1"
"130033679","2079370109","2"
"2079370109","130033679","2"
"130033679","2230663846","1"
"2230663846","130033679","1"
"130033679","2320270846","2"
"2320270846","130033679","2"
"1311744216","2079370109","1"
"2079370109","1311744216","1"
"1311744216","2230663846","1"
"2230663846","1311744216","1"
"1311744216","2320270846","1"
"2320270846","1311744216","1"
"2079370109","2230663846","1"
"2230663846","2079370109","1"
"2079370109","2320270846","2"
"2320270846","2079370109","2"
"2230663846","2320270846","1"
"2320270846","2230663846","1"
"2251937356","2695587386","1"
"2695587386","2251937356","1"
"2251937356","2974108100","1"
"2974108100","2251937356","1"
"2126099377","2695587386","1"
"2695587386","2126099377","1"
"2126099377","2974108100","1"
"2974108100","2126099377","1"
"2695587386","2974108100","1"
"2974108100","2695587386","1"
"2251937356","2088513820","1"
"2088513820","2251937356","1"
"2251937356","2693599996","2"
"2693599996","2251937356","2"
"2251937356","2894534430","1"
"2894534430","2251937356","1"
"2032730976","2088513820","1"
"2088513820","2032730976","1"
"2032730976","2693599996","1"
"2693599996","2032730976","1"
"2032730976","2894534430","1"
"2894534430","2032730976","1"
"2088513820","2693599996","1"
"2693599996","2088513820","1"
"2088513820","2894534430","1"
"2894534430","2088513820","1"
"2693599996","2894534430","1"
"2894534430","2693599996","1"
"2251937356","1988462171","1"
"1988462171","2251937356","1"
"2251937356","2533085136","2"
"2533085136","2251937356","2"
"1988462171","2533085136","1"
"2533085136","1988462171","1"
"2251937356","2560466045","1"
"2560466045","2251937356","1"
"2251937356","2938553903","1"
"2938553903","2251937356","1"
"767664592","2296980435","1"
"2296980435","767664592","1"
"767664592","2560466045","1"
"2560466045","767664592","1"
"767664592","2938553903","1"
"2938553903","767664592","1"
"2115520157","2560466045","1"
"2560466045","2115520157","1"
"2115520157","2938553903","1"
"2938553903","2115520157","1"
"2296980435","2560466045","1"
"2560466045","2296980435","1"
"2296980435","2938553903","1"
"2938553903","2296980435","1"
"2560466045","2938553903","1"
"2938553903","2560466045","1"
"2251937356","2583504928","1"
"2583504928","2251937356","1"
"1311744216","2583504928","1"
"2583504928","1311744216","1"
"2057730414","2583504928","1"
"2583504928","2057730414","1"
"2251937356","1285430303","3"
"1285430303","2251937356","3"
"1285430303","2296980435","2"
"2296980435","1285430303","2"
"2251937356","2224444956","1"
"2224444956","2251937356","1"
"2168325223","2224444956","1"
"2224444956","2168325223","1"
"2251937356","2292410297","2"
"2292410297","2251937356","2"
"2251937356","2619846097","5"
"2619846097","2251937356","5"
"2126099377","2292410297","2"
"2292410297","2126099377","2"
"2126099377","2619846097","2"
"2619846097","2126099377","2"
"2292410297","2619846097","2"
"2619846097","2292410297","2"
"2251937356","2120057990","1"
"2120057990","2251937356","1"
"2251937356","2130954839","4"
"2130954839","2251937356","4"
"2251937356","2151465872","1"
"2151465872","2251937356","1"
"2251937356","2157857057","4"
"2157857057","2251937356","4"
"2251937356","2289783323","4"
"2289783323","2251937356","4"
"2120057990","2130954839","1"
"2130954839","2120057990","1"
"2120057990","2151465872","1"
"2151465872","2120057990","1"
"2120057990","2157857057","1"
"2157857057","2120057990","1"
"2120057990","2289783323","1"
"2289783323","2120057990","1"
"2120057990","2296980435","1"
"2296980435","2120057990","1"
"2130954839","2151465872","1"
"2151465872","2130954839","1"
"2130954839","2157857057","4"
"2157857057","2130954839","4"
"2130954839","2289783323","4"
"2289783323","2130954839","4"
"2130954839","2296980435","4"
"2296980435","2130954839","4"
"2151465872","2157857057","1"
"2157857057","2151465872","1"
"2151465872","2289783323","1"
"2289783323","2151465872","1"
"2151465872","2296980435","1"
"2296980435","2151465872","1"
"2157857057","2289783323","4"
"2289783323","2157857057","4"
"2157857057","2296980435","4"
"2296980435","2157857057","4"
"2289783323","2296980435","4"
"2296980435","2289783323","4"
"2251937356","2057191638","1"
"2057191638","2251937356","1"
"2251937356","2600632528","2"
"2600632528","2251937356","2"
"2057191638","2101395015","1"
"2101395015","2057191638","1"
"2057191638","2600632528","1"
"2600632528","2057191638","1"
"2101395015","2600632528","1"
"2600632528","2101395015","1"
"2251937356","2150698039","1"
"2150698039","2251937356","1"
"334059555","2150698039","1"
"2150698039","334059555","1"
"2251937356","2505879611","2"
"2505879611","2251937356","2"
"1971740420","2499163644","2"
"2499163644","1971740420","2"
"1971740420","2505879611","2"
"2505879611","1971740420","2"
"2044174557","2499163644","2"
"2499163644","2044174557","2"
"2044174557","2505879611","2"
"2505879611","2044174557","2"
"2123574327","2499163644","2"
"2499163644","2123574327","2"
"2123574327","2505879611","2"
"2505879611","2123574327","2"
"2143579066","2499163644","2"
"2499163644","2143579066","2"
"2143579066","2505879611","2"
"2505879611","2143579066","2"
"2163733436","2505879611","2"
"2505879611","2163733436","2"
"2304781527","2499163644","2"
"2499163644","2304781527","2"
"2304781527","2505879611","2"
"2505879611","2304781527","2"
"2397203458","2499163644","2"
"2499163644","2397203458","2"
"2397203458","2505879611","2"
"2505879611","2397203458","2"
"2499163644","2505879611","2"
"2505879611","2499163644","2"
"2251937356","2584360993","1"
"2584360993","2251937356","1"
"2040147795","2584360993","1"
"2584360993","2040147795","1"
"2119979103","2431513145","1"
"2431513145","2119979103","1"
"2119979103","2584360993","1"
"2584360993","2119979103","1"
"2431513145","2584360993","1"
"2584360993","2431513145","1"
"2251937356","730947879","1"
"730947879","2251937356","1"
"2251937356","2009751849","1"
"2009751849","2251937356","1"
"730947879","2009751849","1"
"2009751849","730947879","1"
"730947879","2044174557","1"
"2044174557","730947879","1"
"2009751849","2044174557","1"
"2044174557","2009751849","1"
"2251937356","2625009367","2"
"2625009367","2251937356","2"
"2251937356","2656382634","3"
"2656382634","2251937356","3"
"1859118659","2101395015","1"
"2101395015","1859118659","1"
"1859118659","2115520157","1"
"2115520157","1859118659","1"
"1859118659","2303321604","1"
"2303321604","1859118659","1"
"1859118659","2625009367","2"
"2625009367","1859118659","2"
"1859118659","2656382634","1"
"2656382634","1859118659","1"
"2101395015","2115520157","1"
"2115520157","2101395015","1"
"2101395015","2303321604","1"
"2303321604","2101395015","1"
"2101395015","2625009367","1"
"2625009367","2101395015","1"
"2101395015","2656382634","1"
"2656382634","2101395015","1"
"2115520157","2303321604","1"
"2303321604","2115520157","1"
"2115520157","2625009367","1"
"2625009367","2115520157","1"
"2115520157","2656382634","1"
"2656382634","2115520157","1"
"2303321604","2625009367","1"
"2625009367","2303321604","1"
"2303321604","2656382634","2"
"2656382634","2303321604","2"
"2625009367","2656382634","1"
"2656382634","2625009367","1"
"2251937356","2230887325","3"
"2230887325","2251937356","3"
"2130954839","2230887325","3"
"2230887325","2130954839","3"
"2130954839","2619846097","3"
"2619846097","2130954839","3"
"2157857057","2230887325","3"
"2230887325","2157857057","3"
"2157857057","2619846097","3"
"2619846097","2157857057","3"
"2230887325","2289783323","3"
"2289783323","2230887325","3"
"2230887325","2296980435","3"
"2296980435","2230887325","3"
"2230887325","2619846097","3"
"2619846097","2230887325","3"
"2289783323","2619846097","3"
"2619846097","2289783323","3"
"2296980435","2619846097","3"
"2619846097","2296980435","3"
"2251937356","1964289266","1"
"1964289266","2251937356","1"
"2251937356","2164651172","1"
"2164651172","2251937356","1"
"2251937356","2806735524","1"
"2806735524","2251937356","1"
"1964289266","2164651172","1"
"2164651172","1964289266","1"
"1964289266","2806735524","1"
"2806735524","1964289266","1"
"2164651172","2806735524","1"
"2806735524","2164651172","1"
"162880119","2101395015","1"
"2101395015","162880119","1"
"2251937356","2766350279","1"
"2766350279","2251937356","1"
"2126099377","2766350279","1"
"2766350279","2126099377","1"
"2251937356","2612115694","1"
"2612115694","2251937356","1"
"162880119","1859118659","1"
"1859118659","162880119","1"
"162880119","2600632528","1"
"2600632528","162880119","1"
"162880119","2612115694","1"
"2612115694","162880119","1"
"1859118659","2600632528","1"
"2600632528","1859118659","1"
"1859118659","2612115694","1"
"2612115694","1859118659","1"
"2600632528","2612115694","1"
"2612115694","2600632528","1"
"2251937356","2157782254","2"
"2157782254","2251937356","2"
"2251937356","2166010531","1"
"2166010531","2251937356","1"
"2251937356","2169237732","1"
"2169237732","2251937356","1"
"2157782254","2166010531","1"
"2166010531","2157782254","1"
"2157782254","2169237732","1"
"2169237732","2157782254","1"
"2166010531","2169237732","1"
"2169237732","2166010531","1"
"2251937356","2006410501","1"
"2006410501","2251937356","1"
"2251937356","2646331672","1"
"2646331672","2251937356","1"
"2251937356","2761364274","1"
"2761364274","2251937356","1"
"2251937356","2795485317","1"
"2795485317","2251937356","1"
"2006410501","2157782254","1"
"2157782254","2006410501","1"
"2006410501","2646331672","1"
"2646331672","2006410501","1"
"2006410501","2693599996","1"
"2693599996","2006410501","1"
"2006410501","2761364274","1"
"2761364274","2006410501","1"
"2006410501","2795485317","1"
"2795485317","2006410501","1"
"2157782254","2646331672","1"
"2646331672","2157782254","1"
"2157782254","2693599996","1"
"2693599996","2157782254","1"
"2157782254","2761364274","1"
"2761364274","2157782254","1"
"2157782254","2795485317","1"
"2795485317","2157782254","1"
"2646331672","2693599996","1"
"2693599996","2646331672","1"
"2646331672","2761364274","1"
"2761364274","2646331672","1"
"2646331672","2795485317","1"
"2795485317","2646331672","1"
"2693599996","2761364274","1"
"2761364274","2693599996","1"
"2693599996","2795485317","1"
"2795485317","2693599996","1"
"2761364274","2795485317","1"
"2795485317","2761364274","1"
"2251937356","2888977601","1"
"2888977601","2251937356","1"
"2126099377","2656382634","1"
"2656382634","2126099377","1"
"2126099377","2888977601","1"
"2888977601","2126099377","1"
"2292410297","2656382634","1"
"2656382634","2292410297","1"
"2292410297","2888977601","1"
"2888977601","2292410297","1"
"2619846097","2656382634","1"
"2656382634","2619846097","1"
"2619846097","2888977601","1"
"2888977601","2619846097","1"
"2656382634","2888977601","1"
"2888977601","2656382634","1"
"2251937356","90829543","1"
"90829543","2251937356","1"
"2251937356","284181620","1"
"284181620","2251937356","1"
"2251937356","1872724256","1"
"1872724256","2251937356","1"
"2251937356","2223888744","1"
"2223888744","2251937356","1"
"90829543","172008907","1"
"172008907","90829543","1"
"90829543","284181620","1"
"284181620","90829543","1"
"90829543","1872724256","1"
"1872724256","90829543","1"
"90829543","2130954839","1"
"2130954839","90829543","1"
"90829543","2155817728","1"
"2155817728","90829543","1"
"90829543","2157857057","1"
"2157857057","90829543","1"
"90829543","2223888744","1"
"2223888744","90829543","1"
"90829543","2230887325","1"
"2230887325","90829543","1"
"90829543","2289783323","1"
"2289783323","90829543","1"
"90829543","2296980435","1"
"2296980435","90829543","1"
"90829543","2619846097","1"
"2619846097","90829543","1"
"172008907","284181620","1"
"284181620","172008907","1"
"172008907","1872724256","1"
"1872724256","172008907","1"
"172008907","2130954839","1"
"2130954839","172008907","1"
"172008907","2157857057","1"
"2157857057","172008907","1"
"172008907","2223888744","1"
"2223888744","172008907","1"
"172008907","2230887325","1"
"2230887325","172008907","1"
"172008907","2289783323","1"
"2289783323","172008907","1"
"172008907","2296980435","1"
"2296980435","172008907","1"
"172008907","2619846097","1"
"2619846097","172008907","1"
"284181620","1872724256","1"
"1872724256","284181620","1"
"284181620","2130954839","1"
"2130954839","284181620","1"
"284181620","2155817728","1"
"2155817728","284181620","1"
"284181620","2157857057","1"
"2157857057","284181620","1"
"284181620","2223888744","1"
"2223888744","284181620","1"
"284181620","2230887325","1"
"2230887325","284181620","1"
"284181620","2289783323","1"
"2289783323","284181620","1"
"284181620","2296980435","1"
"2296980435","284181620","1"
"284181620","2619846097","1"
"2619846097","284181620","1"
"1872724256","2130954839","1"
"2130954839","1872724256","1"
"1872724256","2155817728","1"
"2155817728","1872724256","1"
"1872724256","2157857057","1"
"2157857057","1872724256","1"
"1872724256","2223888744","1"
"2223888744","1872724256","1"
"1872724256","2230887325","1"
"2230887325","1872724256","1"
"1872724256","2289783323","1"
"2289783323","1872724256","1"
"1872724256","2296980435","1"
"2296980435","1872724256","1"
"1872724256","2619846097","1"
"2619846097","1872724256","1"
"2130954839","2155817728","1"
"2155817728","2130954839","1"
"2130954839","2223888744","1"
"2223888744","2130954839","1"
"2155817728","2157857057","1"
"2157857057","2155817728","1"
"2155817728","2223888744","1"
"2223888744","2155817728","1"
"2155817728","2230887325","1"
"2230887325","2155817728","1"
"2155817728","2289783323","1"
"2289783323","2155817728","1"
"2155817728","2296980435","1"
"2296980435","2155817728","1"
"2155817728","2619846097","1"
"2619846097","2155817728","1"
"2157857057","2223888744","1"
"2223888744","2157857057","1"
"2223888744","2230887325","1"
"2230887325","2223888744","1"
"2223888744","2289783323","1"
"2289783323","2223888744","1"
"2223888744","2296980435","1"
"2296980435","2223888744","1"
"2223888744","2619846097","1"
"2619846097","2223888744","1"
"2251937356","2718542169","1"
"2718542169","2251937356","1"
"1859118659","2533085136","1"
"2533085136","1859118659","1"
"1859118659","2718542169","1"
"2718542169","1859118659","1"
"2533085136","2625009367","1"
"2625009367","2533085136","1"
"2533085136","2718542169","1"
"2718542169","2533085136","1"
"2625009367","2718542169","1"
"2718542169","2625009367","1"
"2251937356","2407471092","1"
"2407471092","2251937356","1"
"2251937356","2942139855","1"
"2942139855","2251937356","1"
"2251937356","2942277314","1"
"2942277314","2251937356","1"
"2303321604","2407471092","1"
"2407471092","2303321604","1"
"2303321604","2942139855","1"
"2942139855","2303321604","1"
"2303321604","2942277314","1"
"2942277314","2303321604","1"
"2407471092","2656382634","1"
"2656382634","2407471092","1"
"2407471092","2942139855","1"
"2942139855","2407471092","1"
"2407471092","2942277314","1"
"2942277314","2407471092","1"
"2656382634","2942139855","1"
"2942139855","2656382634","1"
"2656382634","2942277314","1"
"2942277314","2656382634","1"
"2942139855","2942277314","1"
"2942277314","2942139855","1"
"2251937356","2971326361","2"
"2971326361","2251937356","2"
"2251937356","2980729769","2"
"2980729769","2251937356","2"
"1569396467","2971326361","1"
"2971326361","1569396467","1"
"1569396467","2980729769","1"
"2980729769","1569396467","1"
"2117810699","2971326361","1"
"2971326361","2117810699","1"
"2117810699","2980729769","1"
"2980729769","2117810699","1"
"2971326361","2980729769","2"
"2980729769","2971326361","2"
"2251937356","2980904726","1"
"2980904726","2251937356","1"
"2971326361","2980904726","1"
"2980904726","2971326361","1"
"2980729769","2980904726","1"
"2980904726","2980729769","1"
"2251937356","2982332431","1"
"2982332431","2251937356","1"
"2251937356","2982681786","1"
"2982681786","2251937356","1"
"2115520157","2982332431","1"
"2982332431","2115520157","1"
"2115520157","2982681786","1"
"2982681786","2115520157","1"
"2982332431","2982681786","1"
"2982681786","2982332431","1"
"130033679","2101395015","1"
"2101395015","130033679","1"
"130033679","1285430303","1"
"1285430303","130033679","1"
"2101395015","1285430303","1"
"1285430303","2101395015","1"
"2101395015","2320270846","1"
"2320270846","2101395015","1"
"2101395015","2079370109","1"
"2079370109","2101395015","1"
"1285430303","2320270846","1"
"2320270846","1285430303","1"
"1285430303","2079370109","1"
"2079370109","1285430303","1"
