"2126052304","2049328426","1"
"2049328426","2126052304","1"
"2126052304","2147937684","1"
"2147937684","2126052304","1"
"2126052304","2169462839","1"
"2169462839","2126052304","1"
"2126052304","2522348112","1"
"2522348112","2126052304","1"
"2126052304","2529977867","1"
"2529977867","2126052304","1"
"2126052304","2572317249","1"
"2572317249","2126052304","1"
"2126052304","2579088800","1"
"2579088800","2126052304","1"
"2049328426","2147937684","1"
"2147937684","2049328426","1"
"2049328426","2169462839","1"
"2169462839","2049328426","1"
"2049328426","2522348112","1"
"2522348112","2049328426","1"
"2049328426","2529977867","1"
"2529977867","2049328426","1"
"2049328426","2572317249","1"
"2572317249","2049328426","1"
"2049328426","2579088800","1"
"2579088800","2049328426","1"
"2147937684","2169462839","1"
"2169462839","2147937684","1"
"2147937684","2522348112","1"
"2522348112","2147937684","1"
"2147937684","2529977867","1"
"2529977867","2147937684","1"
"2147937684","2572317249","1"
"2572317249","2147937684","1"
"2147937684","2579088800","1"
"2579088800","2147937684","1"
"2169462839","2522348112","1"
"2522348112","2169462839","1"
"2169462839","2529977867","1"
"2529977867","2169462839","1"
"2169462839","2572317249","1"
"2572317249","2169462839","1"
"2169462839","2579088800","1"
"2579088800","2169462839","1"
"2522348112","2529977867","1"
"2529977867","2522348112","1"
"2522348112","2572317249","1"
"2572317249","2522348112","1"
"2522348112","2579088800","1"
"2579088800","2522348112","1"
"2529977867","2572317249","1"
"2572317249","2529977867","1"
"2529977867","2579088800","1"
"2579088800","2529977867","1"
"2572317249","2579088800","1"
"2579088800","2572317249","1"
"2126052304","849908952","11"
"849908952","2126052304","11"
"2126052304","1970391018","7"
"1970391018","2126052304","7"
"2126052304","2274456593","6"
"2274456593","2126052304","6"
"849908952","1970391018","4"
"1970391018","849908952","4"
"849908952","2274456593","6"
"2274456593","849908952","6"
"1970391018","2274456593","4"
"2274456593","1970391018","4"
"2126052304","2086738620","3"
"2086738620","2126052304","3"
"2126052304","2141080278","3"
"2141080278","2126052304","3"
"2126052304","2159746675","3"
"2159746675","2126052304","3"
"1970391018","2086738620","3"
"2086738620","1970391018","3"
"1970391018","2141080278","3"
"2141080278","1970391018","3"
"1970391018","2159746675","3"
"2159746675","1970391018","3"
"2086738620","2141080278","3"
"2141080278","2086738620","3"
"2086738620","2159746675","3"
"2159746675","2086738620","3"
"2141080278","2159746675","3"
"2159746675","2141080278","3"
"2126052304","1560725665","8"
"1560725665","2126052304","8"
"2126052304","2009751849","5"
"2009751849","2126052304","5"
"2126052304","2168325223","3"
"2168325223","2126052304","3"
"2126052304","2298582840","1"
"2298582840","2126052304","1"
"849908952","1560725665","5"
"1560725665","849908952","5"
"849908952","2009751849","5"
"2009751849","849908952","5"
"849908952","2168325223","3"
"2168325223","849908952","3"
"849908952","2298582840","1"
"2298582840","849908952","1"
"1560725665","2009751849","5"
"2009751849","1560725665","5"
"1560725665","2168325223","3"
"2168325223","1560725665","3"
"1560725665","2298582840","1"
"2298582840","1560725665","1"
"2009751849","2168325223","3"
"2168325223","2009751849","3"
"2009751849","2298582840","1"
"2298582840","2009751849","1"
"2168325223","2298582840","1"
"2298582840","2168325223","1"
"2126052304","2168727892","2"
"2168727892","2126052304","2"
"2126052304","2305968471","2"
"2305968471","2126052304","2"
"849908952","2168727892","2"
"2168727892","849908952","2"
"849908952","2305968471","2"
"2305968471","849908952","2"
"1560725665","2168727892","2"
"2168727892","1560725665","2"
"1560725665","2305968471","2"
"2305968471","1560725665","2"
"2009751849","2168727892","2"
"2168727892","2009751849","2"
"2009751849","2305968471","2"
"2305968471","2009751849","2"
"2168325223","2168727892","2"
"2168727892","2168325223","2"
"2168325223","2305968471","2"
"2305968471","2168325223","2"
"2168727892","2305968471","2"
"2305968471","2168727892","2"
"2126052304","2105571773","3"
"2105571773","2126052304","3"
"2126052304","2137512077","1"
"2137512077","2126052304","1"
"1560725665","2105571773","2"
"2105571773","1560725665","2"
"1560725665","2137512077","1"
"2137512077","1560725665","1"
"2105571773","2137512077","1"
"2137512077","2105571773","1"
"2126052304","676500258","2"
"676500258","2126052304","2"
"676500258","849908952","2"
"849908952","676500258","2"
"676500258","2274456593","2"
"2274456593","676500258","2"
"2126052304","718039462","1"
"718039462","2126052304","1"
"2126052304","2289381742","2"
"2289381742","2126052304","2"
"718039462","849908952","1"
"849908952","718039462","1"
"718039462","1560725665","1"
"1560725665","718039462","1"
"718039462","2009751849","1"
"2009751849","718039462","1"
"718039462","2289381742","1"
"2289381742","718039462","1"
"849908952","2289381742","1"
"2289381742","849908952","1"
"1560725665","2289381742","2"
"2289381742","1560725665","2"
"2009751849","2289381742","1"
"2289381742","2009751849","1"
"2126052304","681441116","1"
"681441116","2126052304","1"
"2126052304","1999989677","1"
"1999989677","2126052304","1"
"2126052304","2056946347","1"
"2056946347","2126052304","1"
"2126052304","2114188402","1"
"2114188402","2126052304","1"
"2126052304","2120395448","1"
"2120395448","2126052304","1"
"2126052304","2131987743","1"
"2131987743","2126052304","1"
"2126052304","2141074703","1"
"2141074703","2126052304","1"
"2126052304","2154671057","1"
"2154671057","2126052304","1"
"2126052304","2255163509","1"
"2255163509","2126052304","1"
"2126052304","2558077513","1"
"2558077513","2126052304","1"
"681441116","1999989677","1"
"1999989677","681441116","1"
"681441116","2056946347","1"
"2056946347","681441116","1"
"681441116","2114188402","1"
"2114188402","681441116","1"
"681441116","2120395448","1"
"2120395448","681441116","1"
"681441116","2131987743","1"
"2131987743","681441116","1"
"681441116","2141074703","1"
"2141074703","681441116","1"
"681441116","2154671057","1"
"2154671057","681441116","1"
"681441116","2255163509","1"
"2255163509","681441116","1"
"681441116","2558077513","1"
"2558077513","681441116","1"
"1999989677","2056946347","1"
"2056946347","1999989677","1"
"1999989677","2114188402","1"
"2114188402","1999989677","1"
"1999989677","2120395448","1"
"2120395448","1999989677","1"
"1999989677","2131987743","1"
"2131987743","1999989677","1"
"1999989677","2141074703","1"
"2141074703","1999989677","1"
"1999989677","2154671057","1"
"2154671057","1999989677","1"
"1999989677","2255163509","1"
"2255163509","1999989677","1"
"1999989677","2558077513","1"
"2558077513","1999989677","1"
"2056946347","2114188402","1"
"2114188402","2056946347","1"
"2056946347","2120395448","1"
"2120395448","2056946347","1"
"2056946347","2131987743","1"
"2131987743","2056946347","1"
"2056946347","2141074703","1"
"2141074703","2056946347","1"
"2056946347","2154671057","1"
"2154671057","2056946347","1"
"2056946347","2255163509","1"
"2255163509","2056946347","1"
"2056946347","2558077513","1"
"2558077513","2056946347","1"
"2114188402","2120395448","1"
"2120395448","2114188402","1"
"2114188402","2131987743","1"
"2131987743","2114188402","1"
"2114188402","2141074703","1"
"2141074703","2114188402","1"
"2114188402","2154671057","1"
"2154671057","2114188402","1"
"2114188402","2255163509","1"
"2255163509","2114188402","1"
"2114188402","2558077513","1"
"2558077513","2114188402","1"
"2120395448","2131987743","1"
"2131987743","2120395448","1"
"2120395448","2141074703","1"
"2141074703","2120395448","1"
"2120395448","2154671057","1"
"2154671057","2120395448","1"
"2120395448","2255163509","1"
"2255163509","2120395448","1"
"2120395448","2558077513","1"
"2558077513","2120395448","1"
"2131987743","2141074703","1"
"2141074703","2131987743","1"
"2131987743","2154671057","1"
"2154671057","2131987743","1"
"2131987743","2255163509","1"
"2255163509","2131987743","1"
"2131987743","2558077513","1"
"2558077513","2131987743","1"
"2141074703","2154671057","1"
"2154671057","2141074703","1"
"2141074703","2255163509","1"
"2255163509","2141074703","1"
"2141074703","2558077513","1"
"2558077513","2141074703","1"
"2154671057","2255163509","1"
"2255163509","2154671057","1"
"2154671057","2558077513","1"
"2558077513","2154671057","1"
"2255163509","2558077513","1"
"2558077513","2255163509","1"
"2126052304","2130130894","1"
"2130130894","2126052304","1"
"2126052304","2719169889","1"
"2719169889","2126052304","1"
"1560725665","2130130894","1"
"2130130894","1560725665","1"
"1560725665","2719169889","1"
"2719169889","1560725665","1"
"2130130894","2289381742","1"
"2289381742","2130130894","1"
"2130130894","2719169889","1"
"2719169889","2130130894","1"
"2289381742","2719169889","1"
"2719169889","2289381742","1"
"2126052304","2154794983","1"
"2154794983","2126052304","1"
"849908952","2105571773","1"
"2105571773","849908952","1"
"849908952","2154794983","1"
"2154794983","849908952","1"
"1560725665","2154794983","1"
"2154794983","1560725665","1"
"2009751849","2105571773","1"
"2105571773","2009751849","1"
"2009751849","2154794983","1"
"2154794983","2009751849","1"
"2105571773","2154794983","1"
"2154794983","2105571773","1"
"2126052304","2065403502","1"
"2065403502","2126052304","1"
"2126052304","2636115468","1"
"2636115468","2126052304","1"
"2126052304","2987851181","1"
"2987851181","2126052304","1"
"1970391018","2065403502","1"
"2065403502","1970391018","1"
"1970391018","2636115468","1"
"2636115468","1970391018","1"
"1970391018","2987851181","1"
"2987851181","1970391018","1"
"2065403502","2086738620","1"
"2086738620","2065403502","1"
"2065403502","2141080278","1"
"2141080278","2065403502","1"
"2065403502","2159746675","1"
"2159746675","2065403502","1"
"2065403502","2636115468","1"
"2636115468","2065403502","1"
"2065403502","2987851181","1"
"2987851181","2065403502","1"
"2086738620","2636115468","1"
"2636115468","2086738620","1"
"2086738620","2987851181","1"
"2987851181","2086738620","1"
"2141080278","2636115468","1"
"2636115468","2141080278","1"
"2141080278","2987851181","1"
"2987851181","2141080278","1"
"2159746675","2636115468","1"
"2636115468","2159746675","1"
"2159746675","2987851181","1"
"2987851181","2159746675","1"
"2636115468","2987851181","1"
"2987851181","2636115468","1"
