"2139380860","375025052","2"
"375025052","2139380860","2"
"2139380860","1964981709","2"
"1964981709","2139380860","2"
"2139380860","2112220403","2"
"2112220403","2139380860","2"
"2139380860","2123583348","4"
"2123583348","2139380860","4"
"375025052","1964981709","2"
"1964981709","375025052","2"
"375025052","2112220403","2"
"2112220403","375025052","2"
"375025052","2123583348","2"
"2123583348","375025052","2"
"1964981709","2112220403","2"
"2112220403","1964981709","2"
"1964981709","2123583348","2"
"2123583348","1964981709","2"
"2112220403","2123583348","2"
"2123583348","2112220403","2"
"2139380860","2011570632","2"
"2011570632","2139380860","2"
"2139380860","2111158513","3"
"2111158513","2139380860","3"
"2139380860","2179238953","2"
"2179238953","2139380860","2"
"2011570632","2111158513","2"
"2111158513","2011570632","2"
"2011570632","2179238953","2"
"2179238953","2011570632","2"
"2111158513","2179238953","2"
"2179238953","2111158513","2"
"2139380860","291988699","2"
"291988699","2139380860","2"
"2139380860","1476557878","2"
"1476557878","2139380860","2"
"2139380860","1964932286","2"
"1964932286","2139380860","2"
"2139380860","1984910694","2"
"1984910694","2139380860","2"
"2139380860","2037416852","2"
"2037416852","2139380860","2"
"2139380860","2092436715","2"
"2092436715","2139380860","2"
"2139380860","2135933756","2"
"2135933756","2139380860","2"
"2139380860","2150052257","2"
"2150052257","2139380860","2"
"2139380860","2153098128","2"
"2153098128","2139380860","2"
"2139380860","2252050660","2"
"2252050660","2139380860","2"
"291988699","1476557878","2"
"1476557878","291988699","2"
"291988699","1964932286","2"
"1964932286","291988699","2"
"291988699","1984910694","2"
"1984910694","291988699","2"
"291988699","2037416852","2"
"2037416852","291988699","2"
"291988699","2092436715","2"
"2092436715","291988699","2"
"291988699","2123583348","2"
"2123583348","291988699","2"
"291988699","2135933756","2"
"2135933756","291988699","2"
"291988699","2150052257","2"
"2150052257","291988699","2"
"291988699","2153098128","2"
"2153098128","291988699","2"
"291988699","2252050660","2"
"2252050660","291988699","2"
"1476557878","1964932286","2"
"1964932286","1476557878","2"
"1476557878","1984910694","2"
"1984910694","1476557878","2"
"1476557878","2037416852","2"
"2037416852","1476557878","2"
"1476557878","2092436715","2"
"2092436715","1476557878","2"
"1476557878","2123583348","2"
"2123583348","1476557878","2"
"1476557878","2135933756","2"
"2135933756","1476557878","2"
"1476557878","2150052257","2"
"2150052257","1476557878","2"
"1476557878","2153098128","2"
"2153098128","1476557878","2"
"1476557878","2252050660","2"
"2252050660","1476557878","2"
"1964932286","1984910694","2"
"1984910694","1964932286","2"
"1964932286","2037416852","2"
"2037416852","1964932286","2"
"1964932286","2092436715","2"
"2092436715","1964932286","2"
"1964932286","2123583348","2"
"2123583348","1964932286","2"
"1964932286","2135933756","2"
"2135933756","1964932286","2"
"1964932286","2150052257","2"
"2150052257","1964932286","2"
"1964932286","2153098128","2"
"2153098128","1964932286","2"
"1964932286","2252050660","2"
"2252050660","1964932286","2"
"1984910694","2037416852","2"
"2037416852","1984910694","2"
"1984910694","2092436715","2"
"2092436715","1984910694","2"
"1984910694","2123583348","2"
"2123583348","1984910694","2"
"1984910694","2135933756","2"
"2135933756","1984910694","2"
"1984910694","2150052257","2"
"2150052257","1984910694","2"
"1984910694","2153098128","2"
"2153098128","1984910694","2"
"1984910694","2252050660","2"
"2252050660","1984910694","2"
"2037416852","2092436715","2"
"2092436715","2037416852","2"
"2037416852","2123583348","2"
"2123583348","2037416852","2"
"2037416852","2135933756","2"
"2135933756","2037416852","2"
"2037416852","2150052257","2"
"2150052257","2037416852","2"
"2037416852","2153098128","2"
"2153098128","2037416852","2"
"2037416852","2252050660","2"
"2252050660","2037416852","2"
"2092436715","2123583348","2"
"2123583348","2092436715","2"
"2092436715","2135933756","2"
"2135933756","2092436715","2"
"2092436715","2150052257","2"
"2150052257","2092436715","2"
"2092436715","2153098128","2"
"2153098128","2092436715","2"
"2092436715","2252050660","2"
"2252050660","2092436715","2"
"2123583348","2135933756","2"
"2135933756","2123583348","2"
"2123583348","2150052257","2"
"2150052257","2123583348","2"
"2123583348","2153098128","2"
"2153098128","2123583348","2"
"2123583348","2252050660","2"
"2252050660","2123583348","2"
"2135933756","2150052257","2"
"2150052257","2135933756","2"
"2135933756","2153098128","2"
"2153098128","2135933756","2"
"2135933756","2252050660","2"
"2252050660","2135933756","2"
"2150052257","2153098128","2"
"2153098128","2150052257","2"
"2150052257","2252050660","2"
"2252050660","2150052257","2"
"2153098128","2252050660","2"
"2252050660","2153098128","2"
"2139380860","2102728567","9"
"2102728567","2139380860","9"
"2139380860","2128746740","3"
"2128746740","2139380860","3"
"2139380860","2156542757","4"
"2156542757","2139380860","4"
"2139380860","2280995838","6"
"2280995838","2139380860","6"
"2102728567","2128746740","3"
"2128746740","2102728567","3"
"2102728567","2156542757","4"
"2156542757","2102728567","4"
"2102728567","2280995838","4"
"2280995838","2102728567","4"
"2128746740","2156542757","3"
"2156542757","2128746740","3"
"2128746740","2280995838","3"
"2280995838","2128746740","3"
"2156542757","2280995838","4"
"2280995838","2156542757","4"
"2139380860","2140605429","3"
"2140605429","2139380860","3"
"2102728567","2140605429","1"
"2140605429","2102728567","1"
"2140605429","2156542757","1"
"2156542757","2140605429","1"
"2140605429","2280995838","3"
"2280995838","2140605429","3"
"2139380860","2001307513","2"
"2001307513","2139380860","2"
"2139380860","2108510301","2"
"2108510301","2139380860","2"
"2139380860","2229893985","1"
"2229893985","2139380860","1"
"2001307513","2102728567","2"
"2102728567","2001307513","2"
"2001307513","2108510301","2"
"2108510301","2001307513","2"
"2001307513","2229893985","1"
"2229893985","2001307513","1"
"2102728567","2108510301","2"
"2108510301","2102728567","2"
"2102728567","2229893985","1"
"2229893985","2102728567","1"
"2108510301","2229893985","1"
"2229893985","2108510301","1"
"2139380860","2223872594","3"
"2223872594","2139380860","3"
"2139380860","2589910321","2"
"2589910321","2139380860","2"
"2139380860","2663691679","1"
"2663691679","2139380860","1"
"2102728567","2223872594","1"
"2223872594","2102728567","1"
"2102728567","2589910321","1"
"2589910321","2102728567","1"
"2102728567","2663691679","1"
"2663691679","2102728567","1"
"2128746740","2223872594","1"
"2223872594","2128746740","1"
"2128746740","2589910321","1"
"2589910321","2128746740","1"
"2128746740","2663691679","1"
"2663691679","2128746740","1"
"2156542757","2223872594","1"
"2223872594","2156542757","1"
"2156542757","2589910321","1"
"2589910321","2156542757","1"
"2156542757","2663691679","1"
"2663691679","2156542757","1"
"2223872594","2280995838","3"
"2280995838","2223872594","3"
"2223872594","2589910321","1"
"2589910321","2223872594","1"
"2223872594","2663691679","1"
"2663691679","2223872594","1"
"2280995838","2589910321","1"
"2589910321","2280995838","1"
"2280995838","2663691679","1"
"2663691679","2280995838","1"
"2589910321","2663691679","1"
"2663691679","2589910321","1"
"2139380860","1968095182","6"
"1968095182","2139380860","6"
"2139380860","2104824474","5"
"2104824474","2139380860","5"
"1968095182","2104824474","5"
"2104824474","1968095182","5"
"2139380860","45256254","1"
"45256254","2139380860","1"
"2139380860","2222220025","1"
"2222220025","2139380860","1"
"2139380860","2927834621","1"
"2927834621","2139380860","1"
"45256254","2001307513","1"
"2001307513","45256254","1"
"45256254","2102728567","1"
"2102728567","45256254","1"
"45256254","2108510301","1"
"2108510301","45256254","1"
"45256254","2222220025","1"
"2222220025","45256254","1"
"45256254","2927834621","1"
"2927834621","45256254","1"
"2001307513","2222220025","1"
"2222220025","2001307513","1"
"2001307513","2927834621","1"
"2927834621","2001307513","1"
"2102728567","2222220025","1"
"2222220025","2102728567","1"
"2102728567","2927834621","1"
"2927834621","2102728567","1"
"2108510301","2222220025","1"
"2222220025","2108510301","1"
"2108510301","2927834621","1"
"2927834621","2108510301","1"
"2222220025","2927834621","1"
"2927834621","2222220025","1"
"2139380860","1978636667","2"
"1978636667","2139380860","2"
"2139380860","2128644735","4"
"2128644735","2139380860","4"
"2139380860","2144042109","4"
"2144042109","2139380860","4"
"2139380860","2159475363","9"
"2159475363","2139380860","9"
"2139380860","2189426742","4"
"2189426742","2139380860","4"
"2139380860","2192554997","3"
"2192554997","2139380860","3"
"2139380860","2207023792","4"
"2207023792","2139380860","4"
"1978636667","2128644735","2"
"2128644735","1978636667","2"
"1978636667","2144042109","2"
"2144042109","1978636667","2"
"1978636667","2159475363","2"
"2159475363","1978636667","2"
"1978636667","2189426742","2"
"2189426742","1978636667","2"
"1978636667","2192554997","2"
"2192554997","1978636667","2"
"1978636667","2207023792","2"
"2207023792","1978636667","2"
"2128644735","2144042109","4"
"2144042109","2128644735","4"
"2128644735","2159475363","4"
"2159475363","2128644735","4"
"2128644735","2189426742","4"
"2189426742","2128644735","4"
"2128644735","2192554997","3"
"2192554997","2128644735","3"
"2128644735","2207023792","4"
"2207023792","2128644735","4"
"2144042109","2159475363","4"
"2159475363","2144042109","4"
"2144042109","2189426742","4"
"2189426742","2144042109","4"
"2144042109","2192554997","3"
"2192554997","2144042109","3"
"2144042109","2207023792","4"
"2207023792","2144042109","4"
"2159475363","2189426742","4"
"2189426742","2159475363","4"
"2159475363","2192554997","3"
"2192554997","2159475363","3"
"2159475363","2207023792","4"
"2207023792","2159475363","4"
"2189426742","2192554997","3"
"2192554997","2189426742","3"
"2189426742","2207023792","4"
"2207023792","2189426742","4"
"2192554997","2207023792","3"
"2207023792","2192554997","3"
"2139380860","217843928","1"
"217843928","2139380860","1"
"2139380860","2136501685","1"
"2136501685","2139380860","1"
"2139380860","2232423856","1"
"2232423856","2139380860","1"
"2139380860","2674226788","1"
"2674226788","2139380860","1"
"217843928","2102728567","1"
"2102728567","217843928","1"
"217843928","2136501685","1"
"2136501685","217843928","1"
"217843928","2232423856","1"
"2232423856","217843928","1"
"217843928","2674226788","1"
"2674226788","217843928","1"
"2102728567","2136501685","1"
"2136501685","2102728567","1"
"2102728567","2232423856","1"
"2232423856","2102728567","1"
"2102728567","2674226788","1"
"2674226788","2102728567","1"
"2136501685","2232423856","1"
"2232423856","2136501685","1"
"2136501685","2674226788","1"
"2674226788","2136501685","1"
"2232423856","2674226788","1"
"2674226788","2232423856","1"
"2139380860","2105302281","2"
"2105302281","2139380860","2"
"2139380860","2542354933","1"
"2542354933","2139380860","1"
"2105302281","2128644735","2"
"2128644735","2105302281","2"
"2105302281","2144042109","2"
"2144042109","2105302281","2"
"2105302281","2159475363","2"
"2159475363","2105302281","2"
"2105302281","2189426742","2"
"2189426742","2105302281","2"
"2105302281","2207023792","2"
"2207023792","2105302281","2"
"2105302281","2542354933","1"
"2542354933","2105302281","1"
"2128644735","2542354933","1"
"2542354933","2128644735","1"
"2144042109","2542354933","1"
"2542354933","2144042109","1"
"2159475363","2542354933","1"
"2542354933","2159475363","1"
"2189426742","2542354933","1"
"2542354933","2189426742","1"
"2207023792","2542354933","1"
"2542354933","2207023792","1"
"2140605429","2223872594","2"
"2223872594","2140605429","2"
"1978636667","2105302281","1"
"2105302281","1978636667","1"
"2105302281","2192554997","1"
"2192554997","2105302281","1"
"2139380860","2226586071","2"
"2226586071","2139380860","2"
"2139380860","2494175299","2"
"2494175299","2139380860","2"
"2102728567","2226586071","2"
"2226586071","2102728567","2"
"2102728567","2494175299","2"
"2494175299","2102728567","2"
"2226586071","2494175299","2"
"2494175299","2226586071","2"
"2139380860","2231336621","1"
"2231336621","2139380860","1"
"2128644735","2231336621","1"
"2231336621","2128644735","1"
"2144042109","2231336621","1"
"2231336621","2144042109","1"
"2159475363","2231336621","1"
"2231336621","2159475363","1"
"2189426742","2231336621","1"
"2231336621","2189426742","1"
"2192554997","2231336621","1"
"2231336621","2192554997","1"
"2207023792","2231336621","1"
"2231336621","2207023792","1"
"2139380860","2025412164","1"
"2025412164","2139380860","1"
"2139380860","2040467999","1"
"2040467999","2139380860","1"
"2139380860","2044174557","1"
"2044174557","2139380860","1"
"2139380860","2129110015","1"
"2129110015","2139380860","1"
"2139380860","2499501847","1"
"2499501847","2139380860","1"
"2139380860","2678736940","1"
"2678736940","2139380860","1"
"1968095182","2025412164","1"
"2025412164","1968095182","1"
"1968095182","2040467999","1"
"2040467999","1968095182","1"
"1968095182","2044174557","1"
"2044174557","1968095182","1"
"1968095182","2129110015","1"
"2129110015","1968095182","1"
"1968095182","2499501847","1"
"2499501847","1968095182","1"
"1968095182","2678736940","1"
"2678736940","1968095182","1"
"2025412164","2040467999","1"
"2040467999","2025412164","1"
"2025412164","2044174557","1"
"2044174557","2025412164","1"
"2025412164","2129110015","1"
"2129110015","2025412164","1"
"2025412164","2499501847","1"
"2499501847","2025412164","1"
"2025412164","2678736940","1"
"2678736940","2025412164","1"
"2040467999","2044174557","1"
"2044174557","2040467999","1"
"2040467999","2129110015","1"
"2129110015","2040467999","1"
"2040467999","2499501847","1"
"2499501847","2040467999","1"
"2040467999","2678736940","1"
"2678736940","2040467999","1"
"2044174557","2129110015","1"
"2129110015","2044174557","1"
"2044174557","2499501847","1"
"2499501847","2044174557","1"
"2044174557","2678736940","1"
"2678736940","2044174557","1"
"2129110015","2499501847","1"
"2499501847","2129110015","1"
"2129110015","2678736940","1"
"2678736940","2129110015","1"
"2499501847","2678736940","1"
"2678736940","2499501847","1"
"2139380860","2482425324","1"
"2482425324","2139380860","1"
"2139380860","2485113036","1"
"2485113036","2139380860","1"
"2140605429","2482425324","1"
"2482425324","2140605429","1"
"2140605429","2485113036","1"
"2485113036","2140605429","1"
"2223872594","2482425324","1"
"2482425324","2223872594","1"
"2223872594","2485113036","1"
"2485113036","2223872594","1"
"2280995838","2482425324","1"
"2482425324","2280995838","1"
"2280995838","2485113036","1"
"2485113036","2280995838","1"
"2482425324","2485113036","1"
"2485113036","2482425324","1"
"2139380860","2547920647","5"
"2547920647","2139380860","5"
"2159475363","2547920647","5"
"2547920647","2159475363","5"
"2139380860","2566064205","1"
"2566064205","2139380860","1"
"2139380860","2567132745","1"
"2567132745","2139380860","1"
"2139380860","2660238242","1"
"2660238242","2139380860","1"
"2139380860","2691060154","1"
"2691060154","2139380860","1"
"2566064205","2567132745","1"
"2567132745","2566064205","1"
"2566064205","2589910321","1"
"2589910321","2566064205","1"
"2566064205","2660238242","1"
"2660238242","2566064205","1"
"2566064205","2691060154","1"
"2691060154","2566064205","1"
"2567132745","2589910321","1"
"2589910321","2567132745","1"
"2567132745","2660238242","1"
"2660238242","2567132745","1"
"2567132745","2691060154","1"
"2691060154","2567132745","1"
"2589910321","2660238242","1"
"2660238242","2589910321","1"
"2589910321","2691060154","1"
"2691060154","2589910321","1"
"2660238242","2691060154","1"
"2691060154","2660238242","1"
"2139380860","236699164","1"
"236699164","2139380860","1"
"2139380860","1976053395","1"
"1976053395","2139380860","1"
"2139380860","2110433805","1"
"2110433805","2139380860","1"
"2139380860","2122108306","1"
"2122108306","2139380860","1"
"2139380860","2603392117","1"
"2603392117","2139380860","1"
"236699164","1976053395","1"
"1976053395","236699164","1"
"236699164","2011570632","1"
"2011570632","236699164","1"
"236699164","2110433805","1"
"2110433805","236699164","1"
"236699164","2111158513","1"
"2111158513","236699164","1"
"236699164","2122108306","1"
"2122108306","236699164","1"
"236699164","2179238953","1"
"2179238953","236699164","1"
"236699164","2603392117","1"
"2603392117","236699164","1"
"1976053395","2011570632","1"
"2011570632","1976053395","1"
"1976053395","2110433805","1"
"2110433805","1976053395","1"
"1976053395","2111158513","1"
"2111158513","1976053395","1"
"1976053395","2122108306","1"
"2122108306","1976053395","1"
"1976053395","2179238953","1"
"2179238953","1976053395","1"
"1976053395","2603392117","1"
"2603392117","1976053395","1"
"2011570632","2110433805","1"
"2110433805","2011570632","1"
"2011570632","2122108306","1"
"2122108306","2011570632","1"
"2011570632","2603392117","1"
"2603392117","2011570632","1"
"2110433805","2111158513","1"
"2111158513","2110433805","1"
"2110433805","2122108306","1"
"2122108306","2110433805","1"
"2110433805","2179238953","1"
"2179238953","2110433805","1"
"2110433805","2603392117","1"
"2603392117","2110433805","1"
"2111158513","2122108306","1"
"2122108306","2111158513","1"
"2111158513","2603392117","1"
"2603392117","2111158513","1"
"2122108306","2179238953","1"
"2179238953","2122108306","1"
"2122108306","2603392117","1"
"2603392117","2122108306","1"
"2179238953","2603392117","1"
"2603392117","2179238953","1"
"2139380860","1242727073","1"
"1242727073","2139380860","1"
"2139380860","2183049227","1"
"2183049227","2139380860","1"
"1968095182","2183049227","1"
"2183049227","1968095182","1"
"2104824474","2183049227","1"
"2183049227","2104824474","1"
"2139380860","2100550213","1"
"2100550213","2139380860","1"
"2139380860","2208368100","1"
"2208368100","2139380860","1"
"2139380860","2794947695","2"
"2794947695","2139380860","2"
"2139380860","2929444109","1"
"2929444109","2139380860","1"
"2208368100","2794947695","1"
"2794947695","2208368100","1"
"2208368100","2929444109","1"
"2929444109","2208368100","1"
"2794947695","2929444109","1"
"2929444109","2794947695","1"
"2139380860","2063076688","1"
"2063076688","2139380860","1"
"2139380860","2906839480","1"
"2906839480","2139380860","1"
"2063076688","2906839480","1"
"2906839480","2063076688","1"
