"2055909567","1967090257","8"
"1967090257","2055909567","8"
"2055909567","2120693290","3"
"2120693290","2055909567","3"
"2055909567","2122921963","3"
"2122921963","2055909567","3"
"2055909567","2150794226","32"
"2150794226","2055909567","32"
"2055909567","2308546367","3"
"2308546367","2055909567","3"
"1967090257","2120693290","1"
"2120693290","1967090257","1"
"1967090257","2122921963","2"
"2122921963","1967090257","2"
"1967090257","2150794226","8"
"2150794226","1967090257","8"
"1967090257","2308546367","1"
"2308546367","1967090257","1"
"2120693290","2122921963","1"
"2122921963","2120693290","1"
"2120693290","2150794226","3"
"2150794226","2120693290","3"
"2120693290","2308546367","1"
"2308546367","2120693290","1"
"2122921963","2150794226","3"
"2150794226","2122921963","3"
"2122921963","2308546367","1"
"2308546367","2122921963","1"
"2150794226","2308546367","3"
"2308546367","2150794226","3"
"2055909567","2020355954","3"
"2020355954","2055909567","3"
"2055909567","944110652","1"
"944110652","2055909567","1"
"2055909567","1236184000","2"
"1236184000","2055909567","2"
"2055909567","2044650660","2"
"2044650660","2055909567","2"
"2055909567","2118084576","1"
"2118084576","2055909567","1"
"2055909567","2312131864","3"
"2312131864","2055909567","3"
"944110652","1236184000","1"
"1236184000","944110652","1"
"944110652","1967090257","1"
"1967090257","944110652","1"
"944110652","2044650660","1"
"2044650660","944110652","1"
"944110652","2118084576","1"
"2118084576","944110652","1"
"944110652","2150794226","1"
"2150794226","944110652","1"
"944110652","2312131864","1"
"2312131864","944110652","1"
"1236184000","1967090257","2"
"1967090257","1236184000","2"
"1236184000","2044650660","1"
"2044650660","1236184000","1"
"1236184000","2118084576","1"
"2118084576","1236184000","1"
"1236184000","2150794226","2"
"2150794226","1236184000","2"
"1236184000","2312131864","1"
"2312131864","1236184000","1"
"1967090257","2044650660","1"
"2044650660","1967090257","1"
"1967090257","2118084576","1"
"2118084576","1967090257","1"
"1967090257","2312131864","1"
"2312131864","1967090257","1"
"2044650660","2118084576","1"
"2118084576","2044650660","1"
"2044650660","2150794226","2"
"2150794226","2044650660","2"
"2044650660","2312131864","1"
"2312131864","2044650660","1"
"2118084576","2150794226","1"
"2150794226","2118084576","1"
"2118084576","2312131864","1"
"2312131864","2118084576","1"
"2150794226","2312131864","2"
"2312131864","2150794226","2"
"2055909567","2143140909","15"
"2143140909","2055909567","15"
"2055909567","212638451","4"
"212638451","2055909567","4"
"2055909567","2307452095","1"
"2307452095","2055909567","1"
"2055909567","2307888856","1"
"2307888856","2055909567","1"
"212638451","2150794226","1"
"2150794226","212638451","1"
"212638451","2307452095","1"
"2307452095","212638451","1"
"212638451","2307888856","1"
"2307888856","212638451","1"
"2150794226","2307452095","1"
"2307452095","2150794226","1"
"2150794226","2307888856","1"
"2307888856","2150794226","1"
"2307452095","2307888856","1"
"2307888856","2307452095","1"
"2055909567","189103240","6"
"189103240","2055909567","6"
"2055909567","2109585517","2"
"2109585517","2055909567","2"
"2055909567","2973371265","2"
"2973371265","2055909567","2"
"189103240","2109585517","2"
"2109585517","189103240","2"
"189103240","2973371265","2"
"2973371265","189103240","2"
"2109585517","2973371265","2"
"2973371265","2109585517","2"
"2055909567","2165753919","5"
"2165753919","2055909567","5"
"2055909567","2974620294","1"
"2974620294","2055909567","1"
"2143140909","2150794226","8"
"2150794226","2143140909","8"
"2143140909","2165753919","4"
"2165753919","2143140909","4"
"2143140909","2308546367","2"
"2308546367","2143140909","2"
"2143140909","2974620294","1"
"2974620294","2143140909","1"
"2150794226","2165753919","5"
"2165753919","2150794226","5"
"2150794226","2974620294","1"
"2974620294","2150794226","1"
"2165753919","2308546367","1"
"2308546367","2165753919","1"
"2165753919","2974620294","1"
"2974620294","2165753919","1"
"2308546367","2974620294","1"
"2974620294","2308546367","1"
"2055909567","2069254456","5"
"2069254456","2055909567","5"
"1236184000","2069254456","1"
"2069254456","1236184000","1"
"1967090257","2069254456","1"
"2069254456","1967090257","1"
"2069254456","2150794226","4"
"2150794226","2069254456","4"
"2055909567","2167359976","7"
"2167359976","2055909567","7"
"2150794226","2167359976","3"
"2167359976","2150794226","3"
"189103240","2143140909","4"
"2143140909","189103240","4"
"189103240","2150794226","3"
"2150794226","189103240","3"
"2055909567","2949356195","2"
"2949356195","2055909567","2"
"2055909567","2049754202","2"
"2049754202","2055909567","2"
"2055909567","2134315508","5"
"2134315508","2055909567","5"
"2049754202","2134315508","1"
"2134315508","2049754202","1"
"2055909567","2144923365","1"
"2144923365","2055909567","1"
"2055909567","2232344926","1"
"2232344926","2055909567","1"
"2144923365","2232344926","1"
"2232344926","2144923365","1"
"2055909567","2622400877","1"
"2622400877","2055909567","1"
"2055909567","2974230158","2"
"2974230158","2055909567","2"
"2622400877","2974230158","1"
"2974230158","2622400877","1"
"2143140909","2167359976","5"
"2167359976","2143140909","5"
"2055909567","2589411118","2"
"2589411118","2055909567","2"
"2134315508","2143140909","3"
"2143140909","2134315508","3"
"2134315508","2589411118","2"
"2589411118","2134315508","2"
"2143140909","2589411118","2"
"2589411118","2143140909","2"
"2055909567","2017973702","1"
"2017973702","2055909567","1"
"2017973702","2134315508","1"
"2134315508","2017973702","1"
"2069254456","2120693290","1"
"2120693290","2069254456","1"
"2069254456","2312131864","1"
"2312131864","2069254456","1"
"2120693290","2312131864","1"
"2312131864","2120693290","1"
"2055909567","313356634","1"
"313356634","2055909567","1"
"2055909567","2104536345","1"
"2104536345","2055909567","1"
"2055909567","2974920942","1"
"2974920942","2055909567","1"
"313356634","2104536345","1"
"2104536345","313356634","1"
"313356634","2974920942","1"
"2974920942","313356634","1"
"2104536345","2974920942","1"
"2974920942","2104536345","1"
"2055909567","2229182387","1"
"2229182387","2055909567","1"
"2120693290","2143140909","1"
"2143140909","2120693290","1"
"2120693290","2229182387","1"
"2229182387","2120693290","1"
"2143140909","2229182387","1"
"2229182387","2143140909","1"
"2150794226","2229182387","1"
"2229182387","2150794226","1"
"2134315508","2167359976","1"
"2167359976","2134315508","1"
"189103240","2165753919","1"
"2165753919","189103240","1"
"189103240","2167359976","2"
"2167359976","189103240","2"
"2055909567","2286898897","1"
"2286898897","2055909567","1"
"2020355954","2049754202","1"
"2049754202","2020355954","1"
"2020355954","2143140909","1"
"2143140909","2020355954","1"
"2020355954","2167359976","1"
"2167359976","2020355954","1"
"2020355954","2286898897","1"
"2286898897","2020355954","1"
"2049754202","2143140909","1"
"2143140909","2049754202","1"
"2049754202","2167359976","1"
"2167359976","2049754202","1"
"2049754202","2286898897","1"
"2286898897","2049754202","1"
"2143140909","2286898897","1"
"2286898897","2143140909","1"
"2167359976","2286898897","1"
"2286898897","2167359976","1"
"2055909567","2081103470","1"
"2081103470","2055909567","1"
"2081103470","2150794226","1"
"2150794226","2081103470","1"
"2055909567","2110650882","1"
"2110650882","2055909567","1"
"2055909567","2232316718","1"
"2232316718","2055909567","1"
"2055909567","2287397009","1"
"2287397009","2055909567","1"
"2055909567","2287755524","1"
"2287755524","2055909567","1"
"2110650882","2143140909","1"
"2143140909","2110650882","1"
"2110650882","2150794226","1"
"2150794226","2110650882","1"
"2110650882","2232316718","1"
"2232316718","2110650882","1"
"2110650882","2287397009","1"
"2287397009","2110650882","1"
"2110650882","2287755524","1"
"2287755524","2110650882","1"
"2110650882","2308546367","1"
"2308546367","2110650882","1"
"2143140909","2232316718","1"
"2232316718","2143140909","1"
"2143140909","2287397009","1"
"2287397009","2143140909","1"
"2143140909","2287755524","1"
"2287755524","2143140909","1"
"2150794226","2232316718","1"
"2232316718","2150794226","1"
"2150794226","2287397009","1"
"2287397009","2150794226","1"
"2150794226","2287755524","1"
"2287755524","2150794226","1"
"2232316718","2287397009","1"
"2287397009","2232316718","1"
"2232316718","2287755524","1"
"2287755524","2232316718","1"
"2232316718","2308546367","1"
"2308546367","2232316718","1"
"2287397009","2287755524","1"
"2287755524","2287397009","1"
"2287397009","2308546367","1"
"2308546367","2287397009","1"
"2287755524","2308546367","1"
"2308546367","2287755524","1"
"2055909567","2143255478","1"
"2143255478","2055909567","1"
"2055909567","2500025054","1"
"2500025054","2055909567","1"
"2055909567","2602179066","1"
"2602179066","2055909567","1"
"2143255478","2500025054","1"
"2500025054","2143255478","1"
"2143255478","2602179066","1"
"2602179066","2143255478","1"
"2500025054","2602179066","1"
"2602179066","2500025054","1"
"2055909567","2183505635","2"
"2183505635","2055909567","2"
"2150794226","2183505635","2"
"2183505635","2150794226","2"
"2055909567","2561749568","1"
"2561749568","2055909567","1"
"2055909567","2607876159","1"
"2607876159","2055909567","1"
"2044650660","2122921963","1"
"2122921963","2044650660","1"
"2044650660","2561749568","1"
"2561749568","2044650660","1"
"2044650660","2607876159","1"
"2607876159","2044650660","1"
"2122921963","2561749568","1"
"2561749568","2122921963","1"
"2122921963","2607876159","1"
"2607876159","2122921963","1"
"2150794226","2561749568","1"
"2561749568","2150794226","1"
"2150794226","2607876159","1"
"2607876159","2150794226","1"
"2561749568","2607876159","1"
"2607876159","2561749568","1"
"2055909567","2126678344","1"
"2126678344","2055909567","1"
"189103240","2126678344","1"
"2126678344","189103240","1"
"2126678344","2143140909","1"
"2143140909","2126678344","1"
"2126678344","2167359976","1"
"2167359976","2126678344","1"
"1967090257","2183505635","1"
"2183505635","1967090257","1"
"2055909567","2319724066","1"
"2319724066","2055909567","1"
"212638451","2312131864","1"
"2312131864","212638451","1"
"212638451","2319724066","1"
"2319724066","212638451","1"
"2312131864","2319724066","1"
"2319724066","2312131864","1"
"2055909567","2535970144","1"
"2535970144","2055909567","1"
"2055909567","317551622","1"
"317551622","2055909567","1"
"317551622","1967090257","1"
"1967090257","317551622","1"
"317551622","2150794226","1"
"2150794226","317551622","1"
"2055909567","2517843835","1"
"2517843835","2055909567","1"
"2055909567","2807299549","1"
"2807299549","2055909567","1"
"2150794226","2517843835","1"
"2517843835","2150794226","1"
"2150794226","2807299549","1"
"2807299549","2150794226","1"
"2517843835","2807299549","1"
"2807299549","2517843835","1"
"2055909567","245481763","1"
"245481763","2055909567","1"
"2055909567","324580237","4"
"324580237","2055909567","4"
"2055909567","2905540904","1"
"2905540904","2055909567","1"
"2055909567","2905549396","1"
"2905549396","2055909567","1"
"2055909567","2951954041","1"
"2951954041","2055909567","1"
"245481763","324580237","1"
"324580237","245481763","1"
"245481763","2069254456","1"
"2069254456","245481763","1"
"245481763","2905540904","1"
"2905540904","245481763","1"
"245481763","2905549396","1"
"2905549396","245481763","1"
"245481763","2951954041","1"
"2951954041","245481763","1"
"324580237","2069254456","2"
"2069254456","324580237","2"
"324580237","2905540904","1"
"2905540904","324580237","1"
"324580237","2905549396","1"
"2905549396","324580237","1"
"324580237","2951954041","1"
"2951954041","324580237","1"
"2069254456","2905540904","1"
"2905540904","2069254456","1"
"2069254456","2905549396","1"
"2905549396","2069254456","1"
"2069254456","2951954041","1"
"2951954041","2069254456","1"
"2905540904","2905549396","1"
"2905549396","2905540904","1"
"2905540904","2951954041","1"
"2951954041","2905540904","1"
"2905549396","2951954041","1"
"2951954041","2905549396","1"
"2055909567","2564599322","2"
"2564599322","2055909567","2"
"324580237","2150794226","3"
"2150794226","324580237","3"
"324580237","2564599322","2"
"2564599322","324580237","2"
"2150794226","2564599322","2"
"2564599322","2150794226","2"
"2055909567","2957757450","1"
"2957757450","2055909567","1"
"2055909567","2960726712","1"
"2960726712","2055909567","1"
"1967090257","2957757450","1"
"2957757450","1967090257","1"
"1967090257","2960726712","1"
"2960726712","1967090257","1"
"2150794226","2957757450","1"
"2957757450","2150794226","1"
"2150794226","2960726712","1"
"2960726712","2150794226","1"
"2957757450","2960726712","1"
"2960726712","2957757450","1"
"2055909567","2439877267","1"
"2439877267","2055909567","1"
"2055909567","2944674785","2"
"2944674785","2055909567","2"
"2055909567","2960021217","1"
"2960021217","2055909567","1"
"2069254456","2439877267","1"
"2439877267","2069254456","1"
"2069254456","2944674785","2"
"2944674785","2069254456","2"
"2069254456","2960021217","1"
"2960021217","2069254456","1"
"2150794226","2439877267","1"
"2439877267","2150794226","1"
"2150794226","2944674785","2"
"2944674785","2150794226","2"
"2150794226","2960021217","1"
"2960021217","2150794226","1"
"2439877267","2944674785","1"
"2944674785","2439877267","1"
"2439877267","2960021217","1"
"2960021217","2439877267","1"
"2944674785","2960021217","1"
"2960021217","2944674785","1"
"2055909567","3000318494","1"
"3000318494","2055909567","1"
"324580237","2944674785","1"
"2944674785","324580237","1"
"324580237","3000318494","1"
"3000318494","324580237","1"
"2069254456","3000318494","1"
"3000318494","2069254456","1"
"2150794226","3000318494","1"
"3000318494","2150794226","1"
"2944674785","3000318494","1"
"3000318494","2944674785","1"
