"139543642","1879587332","1.2"
"1879587332","139543642","1.2"
"139543642","1837820969","1"
"1837820969","139543642","1"
"139543642","1638026557","0.2"
"1638026557","139543642","0.2"
"139543642","2067967297","1.2"
"2067967297","139543642","1.2"
"139543642","2165555615","0.2"
"2165555615","139543642","0.2"
"139543642","2169028468","0.2"
"2169028468","139543642","0.2"
"1638026557","1879587332","249.367"
"1879587332","1638026557","249.367"
"1638026557","2067967297","2.2"
"2067967297","1638026557","2.2"
"1638026557","2165555615","1.03333"
"2165555615","1638026557","1.03333"
"1638026557","2169028468","0.7"
"2169028468","1638026557","0.7"
"1879587332","2067967297","5.7"
"2067967297","1879587332","5.7"
"1879587332","2165555615","1.53333"
"2165555615","1879587332","1.53333"
"1879587332","2169028468","1.2"
"2169028468","1879587332","1.2"
"2067967297","2165555615","0.2"
"2165555615","2067967297","0.2"
"2067967297","2169028468","0.2"
"2169028468","2067967297","0.2"
"2165555615","2169028468","0.7"
"2169028468","2165555615","0.7"
"1590459781","1879587332","1"
"1879587332","1590459781","1"
"1590459781","2142151675","1"
"2142151675","1590459781","1"
"1638026557","2142151675","16"
"2142151675","1638026557","16"
"1638026557","2024797550","2"
"2024797550","1638026557","2"
"1879587332","2142151675","36"
"2142151675","1879587332","36"
"1638026557","1930553193","0.833333"
"1930553193","1638026557","0.833333"
"1879587332","1930553193","0.833333"
"1930553193","1879587332","0.833333"
"1930553193","2165555615","0.333333"
"2165555615","1930553193","0.333333"
"1638026557","2113888164","0.333333"
"2113888164","1638026557","0.333333"
"1638026557","2143401113","0.333333"
"2143401113","1638026557","0.333333"
"1879587332","2113888164","5.33333"
"2113888164","1879587332","5.33333"
"1879587332","2143401113","18.3333"
"2143401113","1879587332","18.3333"
"2113888164","2143401113","295.333"
"2143401113","2113888164","295.333"
"1638026557","2481295227","1"
"2481295227","1638026557","1"
"1837820969","191500054","0.5"
"191500054","1837820969","0.5"
"1837820969","2165555615","4.5"
"2165555615","1837820969","4.5"
"191500054","2165555615","2.5"
"2165555615","191500054","2.5"
"1879587332","2024797550","3.5"
"2024797550","1879587332","3.5"
"2067967297","2143401113","0.5"
"2143401113","2067967297","0.5"
"1879587332","50457125","1"
"50457125","1879587332","1"
"2142151675","2143401113","0.5"
"2143401113","2142151675","0.5"
"2024797550","2113888164","3.5"
"2113888164","2024797550","3.5"
"2113888164","2142151675","0.5"
"2142151675","2113888164","0.5"
"1930553193","2081602469","1"
"2081602469","1930553193","1"
"1930553193","2652392491","1"
"2652392491","1930553193","1"
"2081602469","2652392491","7.5"
"2652392491","2081602469","7.5"
"2024621423","2049770245","0.333333"
"2049770245","2024621423","0.333333"
"2024621423","2111032703","0.333333"
"2111032703","2024621423","0.333333"
"2024621423","2135979242","0.333333"
"2135979242","2024621423","0.333333"
"2049770245","2111032703","2.33333"
"2111032703","2049770245","2.33333"
"2049770245","2135979242","0.333333"
"2135979242","2049770245","0.333333"
"2111032703","2135979242","0.333333"
"2135979242","2111032703","0.333333"
"2024797550","2169028468","3"
"2169028468","2024797550","3"
"2024797550","2143401113","4"
"2143401113","2024797550","4"
"2049770245","2408298952","1"
"2408298952","2049770245","1"
"2111032703","2408298952","1"
"2408298952","2111032703","1"
"2067967297","2081602469","0.5"
"2081602469","2067967297","0.5"
"2067967297","2652392491","0.5"
"2652392491","2067967297","0.5"
