"1010337604","1538818174","2"
"1538818174","1010337604","2"
"1010337604","2278442298","1"
"2278442298","1010337604","1"
"1480461337","1967601791","5.83333"
"1967601791","1480461337","5.83333"
"1480461337","1578663810","1.83333"
"1578663810","1480461337","1.83333"
"1578663810","1967601791","2.33333"
"1967601791","1578663810","2.33333"
"1480461337","1905015708","1.33333"
"1905015708","1480461337","1.33333"
"1578663810","1905015708","1.83333"
"1905015708","1578663810","1.83333"
"1905015708","1967601791","1.83333"
"1967601791","1905015708","1.83333"
"1480461337","2292693431","0.5"
"2292693431","1480461337","0.5"
"1967601791","2292693431","5.58333"
"2292693431","1967601791","5.58333"
"1480461337","2182331413","0.5"
"2182331413","1480461337","0.5"
"1967601791","2182331413","2.33333"
"2182331413","1967601791","2.33333"
"1499807075","1515739837","0.2"
"1515739837","1499807075","0.2"
"1499807075","2041563709","0.7"
"2041563709","1499807075","0.7"
"1499807075","2044564105","0.2"
"2044564105","1499807075","0.2"
"1499807075","2121755841","0.7"
"2121755841","1499807075","0.7"
"1499807075","2171147420","0.2"
"2171147420","1499807075","0.2"
"1515739837","2041563709","5.56667"
"2041563709","1515739837","5.56667"
"1515739837","2044564105","0.366667"
"2044564105","1515739837","0.366667"
"1515739837","2121755841","0.4"
"2121755841","1515739837","0.4"
"1515739837","2171147420","1.06667"
"2171147420","1515739837","1.06667"
"2041563709","2044564105","0.866667"
"2044564105","2041563709","0.866667"
"2041563709","2121755841","3.4"
"2121755841","2041563709","3.4"
"2041563709","2171147420","12.65"
"2171147420","2041563709","12.65"
"2044564105","2121755841","0.2"
"2121755841","2044564105","0.2"
"2044564105","2171147420","4.2"
"2171147420","2044564105","4.2"
"2121755841","2171147420","1.4"
"2171147420","2121755841","1.4"
"1512955609","2106895292","2"
"2106895292","1512955609","2"
"1512955609","1684311429","1"
"1684311429","1512955609","1"
"1515739837","2106895292","1.5"
"2106895292","1515739837","1.5"
"2041563709","2106895292","1.5"
"2106895292","2041563709","1.5"
"1515739837","1578495525","1"
"1578495525","1515739837","1"
"1578495525","2041563709","4.58333"
"2041563709","1578495525","4.58333"
"1515739837","1595441669","0.166667"
"1595441669","1515739837","0.166667"
"1515739837","2135499008","0.166667"
"2135499008","1515739837","0.166667"
"1515739837","2161569281","0.166667"
"2161569281","1515739837","0.166667"
"1595441669","2041563709","0.416667"
"2041563709","1595441669","0.416667"
"1595441669","2044564105","0.166667"
"2044564105","1595441669","0.166667"
"1595441669","2135499008","0.166667"
"2135499008","1595441669","0.166667"
"1595441669","2161569281","0.166667"
"2161569281","1595441669","0.166667"
"1595441669","2171147420","0.166667"
"2171147420","1595441669","0.166667"
"2041563709","2135499008","9.41667"
"2135499008","2041563709","9.41667"
"2041563709","2161569281","6.25"
"2161569281","2041563709","6.25"
"2044564105","2135499008","5.83333"
"2135499008","2044564105","5.83333"
"2044564105","2161569281","13"
"2161569281","2044564105","13"
"2135499008","2161569281","151.417"
"2161569281","2135499008","151.417"
"2135499008","2171147420","37.0833"
"2171147420","2135499008","37.0833"
"2161569281","2171147420","24.0833"
"2171147420","2161569281","24.0833"
"1515739837","1684311429","0.2"
"1684311429","1515739837","0.2"
"1515739837","2078466495","0.2"
"2078466495","1515739837","0.2"
"1684311429","2041563709","3.36667"
"2041563709","1684311429","3.36667"
"1684311429","2078466495","3.2"
"2078466495","1684311429","3.2"
"1684311429","2121755841","0.2"
"2121755841","1684311429","0.2"
"1684311429","2171147420","10.7833"
"2171147420","1684311429","10.7833"
"2041563709","2078466495","2.11667"
"2078466495","2041563709","2.11667"
"2078466495","2121755841","0.2"
"2121755841","2078466495","0.2"
"2078466495","2171147420","1.2"
"2171147420","2078466495","1.2"
"1538818174","2135499008","16.5"
"2135499008","1538818174","16.5"
"1538818174","2161569281","17.5"
"2161569281","1538818174","17.5"
"1538818174","2278442298","6"
"2278442298","1538818174","6"
"1538818174","2044564105","1"
"2044564105","1538818174","1"
"1538818174","1571912949","1"
"1571912949","1538818174","1"
"1538818174","1578918886","1"
"1578918886","1538818174","1"
"1538818174","2160149182","2"
"2160149182","1538818174","2"
"1571912949","2041563709","1"
"2041563709","1571912949","1"
"1571912949","2121755841","0.5"
"2121755841","1571912949","0.5"
"1571912949","2160149182","0.5"
"2160149182","1571912949","0.5"
"2121755841","2160149182","0.5"
"2160149182","2121755841","0.5"
"1578495525","2171147420","0.5"
"2171147420","1578495525","0.5"
"1578495525","2078466495","8.58333"
"2078466495","1578495525","8.58333"
"1578495525","2131413649","0.833333"
"2131413649","1578495525","0.833333"
"2041563709","2131413649","8.83333"
"2131413649","2041563709","8.83333"
"2078466495","2131413649","0.333333"
"2131413649","2078466495","0.333333"
"1578495525","1595441669","0.25"
"1595441669","1578495525","0.25"
"1578495525","182726565","0.25"
"182726565","1578495525","0.25"
"1595441669","182726565","2.25"
"182726565","1595441669","2.25"
"1595441669","2078466495","0.25"
"2078466495","1595441669","0.25"
"182726565","2041563709","0.25"
"2041563709","182726565","0.25"
"182726565","2078466495","0.25"
"2078466495","182726565","0.25"
"1584770030","1967601791","2.7"
"1967601791","1584770030","2.7"
"1584770030","2100542992","0.5"
"2100542992","1584770030","0.5"
"1584770030","2188889839","0.25"
"2188889839","1584770030","0.25"
"1584770030","2292693431","0.5"
"2292693431","1584770030","0.5"
"1967601791","2100542992","8.2"
"2100542992","1967601791","8.2"
"1967601791","2188889839","8.75"
"2188889839","1967601791","8.75"
"2100542992","2188889839","2.95"
"2188889839","2100542992","2.95"
"2100542992","2292693431","1.08333"
"2292693431","2100542992","1.08333"
"2188889839","2292693431","1.25"
"2292693431","2188889839","1.25"
"1584770030","1890220130","0.2"
"1890220130","1584770030","0.2"
"1584770030","2103216163","0.2"
"2103216163","1584770030","0.2"
"1584770030","2113831242","0.2"
"2113831242","1584770030","0.2"
"1584770030","2143125604","1.2"
"2143125604","1584770030","1.2"
"1890220130","1967601791","0.783333"
"1967601791","1890220130","0.783333"
"1890220130","2103216163","0.2"
"2103216163","1890220130","0.2"
"1890220130","2113831242","0.65"
"2113831242","1890220130","0.65"
"1890220130","2143125604","1.48333"
"2143125604","1890220130","1.48333"
"1967601791","2103216163","3.36667"
"2103216163","1967601791","3.36667"
"1967601791","2113831242","3.48333"
"2113831242","1967601791","3.48333"
"1967601791","2143125604","4.65"
"2143125604","1967601791","4.65"
"2103216163","2113831242","0.2"
"2113831242","2103216163","0.2"
"2103216163","2143125604","2.78333"
"2143125604","2103216163","2.78333"
"2113831242","2143125604","3.68333"
"2143125604","2113831242","3.68333"
"1584770030","2182331413","0.25"
"2182331413","1584770030","0.25"
"2100542992","2182331413","0.833333"
"2182331413","2100542992","0.833333"
"2182331413","2292693431","0.5"
"2292693431","2182331413","0.5"
"1595441669","2151037077","2"
"2151037077","1595441669","2"
"1658167903","2041563709","1.25"
"2041563709","1658167903","1.25"
"1658167903","1967601791","1"
"1967601791","1658167903","1"
"1658167903","2044564105","0.25"
"2044564105","1658167903","0.25"
"1658167903","2135499008","1.5"
"2135499008","1658167903","1.5"
"1658167903","2161569281","0.5"
"2161569281","1658167903","0.5"
"1658167903","2171147420","0.5"
"2171147420","1658167903","0.5"
"1684311429","2135499008","32.25"
"2135499008","1684311429","32.25"
"1684311429","2161569281","15.75"
"2161569281","1684311429","15.75"
"1684311429","2131413649","6"
"2131413649","1684311429","6"
"1684311429","2044564105","6.91667"
"2044564105","1684311429","6.91667"
"1684311429","2005142245","3"
"2005142245","1684311429","3"
"2005142245","2171147420","1"
"2171147420","2005142245","1"
"1684311429","1890220130","0.333333"
"1890220130","1684311429","0.333333"
"1890220130","2041563709","0.333333"
"2041563709","1890220130","0.333333"
"1890220130","2171147420","0.333333"
"2171147420","1890220130","0.333333"
"179108129","2106895292","2"
"2106895292","179108129","2"
"1890220130","2100542992","1.28333"
"2100542992","1890220130","1.28333"
"1890220130","2114474644","0.2"
"2114474644","1890220130","0.2"
"1890220130","2188889839","0.2"
"2188889839","1890220130","0.2"
"2100542992","2113831242","4.98333"
"2113831242","2100542992","4.98333"
"2100542992","2114474644","11.9833"
"2114474644","2100542992","11.9833"
"2100542992","2143125604","12.5667"
"2143125604","2100542992","12.5667"
"2113831242","2114474644","0.4"
"2114474644","2113831242","0.4"
"2113831242","2188889839","0.2"
"2188889839","2113831242","0.2"
"2114474644","2143125604","2.98333"
"2143125604","2114474644","2.98333"
"2114474644","2188889839","0.7"
"2188889839","2114474644","0.7"
"2143125604","2188889839","0.2"
"2188889839","2143125604","0.2"
"1905015708","2278442298","1"
"2278442298","1905015708","1"
"1967601791","2160149182","0.25"
"2160149182","1967601791","0.25"
"2100542992","2160149182","0.25"
"2160149182","2100542992","0.25"
"2160149182","2182331413","0.25"
"2182331413","2160149182","0.25"
"2160149182","2292693431","0.25"
"2292693431","2160149182","0.25"
"2103216163","2188889839","2.5"
"2188889839","2103216163","2.5"
"1967601791","2018745370","2.33333"
"2018745370","1967601791","2.33333"
"1967601791","2114474644","1.03333"
"2114474644","1967601791","1.03333"
"2018745370","2114474644","15.4167"
"2114474644","2018745370","15.4167"
"2018745370","2143125604","0.583333"
"2143125604","2018745370","0.583333"
"2143125604","2182331413","0.333333"
"2182331413","2143125604","0.333333"
"1967601791","2041563709","0.833333"
"2041563709","1967601791","0.833333"
"2041563709","2100542992","1.83333"
"2100542992","2041563709","1.83333"
"2041563709","2143125604","0.333333"
"2143125604","2041563709","0.333333"
"1967601791","1982558719","0.2"
"1982558719","1967601791","0.2"
"1982558719","2100542992","0.2"
"2100542992","1982558719","0.2"
"1982558719","2113831242","0.2"
"2113831242","1982558719","0.2"
"1982558719","2114474644","0.2"
"2114474644","1982558719","0.2"
"1982558719","2143125604","0.2"
"2143125604","1982558719","0.2"
"1967601791","2121755841","0.5"
"2121755841","1967601791","0.5"
"1967601791","2417855281","1"
"2417855281","1967601791","1"
"1967601791","2584505023","2"
"2584505023","1967601791","2"
"2100542992","2103216163","13.9167"
"2103216163","2100542992","13.9167"
"2103216163","2292693431","0.333333"
"2292693431","2103216163","0.333333"
"1967601791","2428665651","3"
"2428665651","1967601791","3"
"1967601791","2131413649","1"
"2131413649","1967601791","1"
"1969837095","2151037077","1.5"
"2151037077","1969837095","1.5"
"1969837095","2106895292","0.5"
"2106895292","1969837095","0.5"
"2106895292","2151037077","0.5"
"2151037077","2106895292","0.5"
"1969837095","2161569281","2"
"2161569281","1969837095","2"
"1982558719","2041563709","1"
"2041563709","1982558719","1"
"1982558719","2027976416","2"
"2027976416","1982558719","2"
"1982558719","2103216163","1"
"2103216163","1982558719","1"
"1982558719","2292693431","1"
"2292693431","1982558719","1"
"2005142245","2041563709","1"
"2041563709","2005142245","1"
"2018745370","2100542992","7.08333"
"2100542992","2018745370","7.08333"
"2018745370","2103216163","0.25"
"2103216163","2018745370","0.25"
"2103216163","2114474644","0.75"
"2114474644","2103216163","0.75"
"2018745370","2135499008","2"
"2135499008","2018745370","2"
"2018745370","2131413649","1"
"2131413649","2018745370","1"
"2018745370","2161569281","0.333333"
"2161569281","2018745370","0.333333"
"2100542992","2161569281","1.33333"
"2161569281","2100542992","1.33333"
"2114474644","2161569281","0.333333"
"2161569281","2114474644","0.333333"
"2030528599","2160149182","0.5"
"2160149182","2030528599","0.5"
"2030528599","2171147420","0.5"
"2171147420","2030528599","0.5"
"2160149182","2171147420","0.5"
"2171147420","2160149182","0.5"
"2041563709","2160149182","8"
"2160149182","2041563709","8"
"2131413649","2160149182","3"
"2160149182","2131413649","3"
"2078466495","2135499008","3.33333"
"2135499008","2078466495","3.33333"
"2078466495","2161569281","0.333333"
"2161569281","2078466495","0.333333"
"2041563709","2278442298","1"
"2278442298","2041563709","1"
"2041563709","2103216163","1.5"
"2103216163","2041563709","1.5"
"2044564105","2106895292","3"
"2106895292","2044564105","3"
"2078466495","2103216163","2"
"2103216163","2078466495","2"
"2100542992","2106895292","1"
"2106895292","2100542992","1"
"2100542992","2135499008","1.5"
"2135499008","2100542992","1.5"
"2103216163","2135499008","1.5"
"2135499008","2103216163","1.5"
"2100542992","2171147420","0.5"
"2171147420","2100542992","0.5"
"2103216163","2161569281","0.5"
"2161569281","2103216163","0.5"
"2103216163","2182331413","1"
"2182331413","2103216163","1"
"2106895292","2135499008","2.33333"
"2135499008","2106895292","2.33333"
"2106895292","2161569281","0.333333"
"2161569281","2106895292","0.333333"
"2106895292","2171147420","0.333333"
"2171147420","2106895292","0.333333"
"2106895292","2121755841","2"
"2121755841","2106895292","2"
"2106895292","2131413649","2"
"2131413649","2106895292","2"
"2113831242","2182331413","1"
"2182331413","2113831242","1"
"2131413649","2161569281","1"
"2161569281","2131413649","1"
"2131413649","2143125604","2"
"2143125604","2131413649","2"
"2143125604","2212840494","1"
"2212840494","2143125604","1"
"2161569281","2188889839","3"
"2188889839","2161569281","3"
"2428665651","2584505023","1"
"2584505023","2428665651","1"
