"1520378624","1787690559","0.24359"
"1787690559","1520378624","0.24359"
"1520378624","1901071501","1.24359"
"1901071501","1520378624","1.24359"
"1520378624","1973989283","0.0769231"
"1973989283","1520378624","0.0769231"
"1520378624","1993969836","0.24359"
"1993969836","1520378624","0.24359"
"1520378624","2009225496","0.0769231"
"2009225496","1520378624","0.0769231"
"1520378624","2060303375","0.0769231"
"2060303375","1520378624","0.0769231"
"1520378624","2061069343","0.49359"
"2061069343","1520378624","0.49359"
"1520378624","2071693620","0.576923"
"2071693620","1520378624","0.576923"
"1520378624","2086034289","0.0769231"
"2086034289","1520378624","0.0769231"
"1520378624","2128098381","0.24359"
"2128098381","1520378624","0.24359"
"1520378624","2167160593","0.0769231"
"2167160593","1520378624","0.0769231"
"1520378624","2405532490","0.0769231"
"2405532490","1520378624","0.0769231"
"1520378624","2416450481","0.326923"
"2416450481","1520378624","0.326923"
"1787690559","1901071501","3.54716"
"1901071501","1787690559","3.54716"
"1787690559","1973989283","0.678114"
"1973989283","1787690559","0.678114"
"1787690559","1993969836","0.326923"
"1993969836","1787690559","0.326923"
"1787690559","2009225496","0.326923"
"2009225496","1787690559","0.326923"
"1787690559","2060303375","0.776923"
"2060303375","1787690559","0.776923"
"1787690559","2061069343","0.636447"
"2061069343","1787690559","0.636447"
"1787690559","2071693620","6.08645"
"2071693620","1787690559","6.08645"
"1787690559","2086034289","0.46978"
"2086034289","1787690559","0.46978"
"1787690559","2128098381","0.660256"
"2128098381","1787690559","0.660256"
"1787690559","2167160593","1.13645"
"2167160593","1787690559","1.13645"
"1787690559","2405532490","1.16026"
"2405532490","1787690559","1.16026"
"1787690559","2416450481","0.660256"
"2416450481","1787690559","0.660256"
"1901071501","1973989283","0.428114"
"1973989283","1901071501","0.428114"
"1901071501","1993969836","0.326923"
"1993969836","1901071501","0.326923"
"1901071501","2009225496","0.326923"
"2009225496","1901071501","0.326923"
"1901071501","2060303375","0.0769231"
"2060303375","1901071501","0.0769231"
"1901071501","2061069343","0.386447"
"2061069343","1901071501","0.386447"
"1901071501","2071693620","1.38645"
"2071693620","1901071501","1.38645"
"1901071501","2086034289","0.21978"
"2086034289","1901071501","0.21978"
"1901071501","2128098381","0.326923"
"2128098381","1901071501","0.326923"
"1901071501","2167160593","1.80311"
"2167160593","1901071501","1.80311"
"1901071501","2405532490","1.16026"
"2405532490","1901071501","1.16026"
"1901071501","2416450481","0.576923"
"2416450481","1901071501","0.576923"
"1973989283","1993969836","0.251166"
"1993969836","1973989283","0.251166"
"1973989283","2009225496","0.251166"
"2009225496","1973989283","0.251166"
"1973989283","2060303375","0.0769231"
"2060303375","1973989283","0.0769231"
"1973989283","2061069343","0.310689"
"2061069343","1973989283","0.310689"
"1973989283","2071693620","0.644023"
"2071693620","1973989283","0.644023"
"1973989283","2086034289","0.21978"
"2086034289","1973989283","0.21978"
"1973989283","2128098381","0.251166"
"2128098381","1973989283","0.251166"
"1973989283","2167160593","0.160256"
"2167160593","1973989283","0.160256"
"1973989283","2405532490","0.160256"
"2405532490","1973989283","0.160256"
"1973989283","2416450481","0.160256"
"2416450481","1973989283","0.160256"
"1993969836","2009225496","0.251166"
"2009225496","1993969836","0.251166"
"1993969836","2060303375","0.0769231"
"2060303375","1993969836","0.0769231"
"1993969836","2061069343","0.334499"
"2061069343","1993969836","0.334499"
"1993969836","2071693620","0.251166"
"2071693620","1993969836","0.251166"
"1993969836","2086034289","0.0769231"
"2086034289","1993969836","0.0769231"
"1993969836","2128098381","0.417832"
"2128098381","1993969836","0.417832"
"1993969836","2167160593","0.160256"
"2167160593","1993969836","0.160256"
"1993969836","2405532490","0.160256"
"2405532490","1993969836","0.160256"
"1993969836","2416450481","1.16026"
"2416450481","1993969836","1.16026"
"2009225496","2060303375","0.0769231"
"2060303375","2009225496","0.0769231"
"2009225496","2061069343","0.167832"
"2061069343","2009225496","0.167832"
"2009225496","2071693620","0.876166"
"2071693620","2009225496","0.876166"
"2009225496","2086034289","0.0769231"
"2086034289","2009225496","0.0769231"
"2009225496","2128098381","3.25117"
"2128098381","2009225496","3.25117"
"2009225496","2167160593","0.61859"
"2167160593","2009225496","0.61859"
"2009225496","2405532490","0.326923"
"2405532490","2009225496","0.326923"
"2009225496","2416450481","0.326923"
"2416450481","2009225496","0.326923"
"2060303375","2061069343","0.0769231"
"2061069343","2060303375","0.0769231"
"2060303375","2071693620","0.276923"
"2071693620","2060303375","0.276923"
"2060303375","2086034289","0.0769231"
"2086034289","2060303375","0.0769231"
"2060303375","2128098381","0.576923"
"2128098381","2060303375","0.576923"
"2060303375","2167160593","0.0769231"
"2167160593","2060303375","0.0769231"
"2060303375","2405532490","0.0769231"
"2405532490","2060303375","0.0769231"
"2060303375","2416450481","0.576923"
"2416450481","2060303375","0.576923"
"2061069343","2071693620","0.810689"
"2071693620","2061069343","0.810689"
"2061069343","2086034289","3.46978"
"2086034289","2061069343","3.46978"
"2061069343","2128098381","0.334499"
"2128098381","2061069343","0.334499"
"2061069343","2167160593","0.0769231"
"2167160593","2061069343","0.0769231"
"2061069343","2405532490","0.0769231"
"2405532490","2061069343","0.0769231"
"2061069343","2416450481","0.826923"
"2416450481","2061069343","0.826923"
"2071693620","2086034289","0.46978"
"2086034289","2071693620","0.46978"
"2071693620","2128098381","0.251166"
"2128098381","2071693620","0.251166"
"2071693620","2167160593","1.28526"
"2167160593","2071693620","1.28526"
"2071693620","2405532490","0.326923"
"2405532490","2071693620","0.326923"
"2071693620","2416450481","1.16026"
"2416450481","2071693620","1.16026"
"2086034289","2128098381","0.0769231"
"2128098381","2086034289","0.0769231"
"2086034289","2167160593","0.0769231"
"2167160593","2086034289","0.0769231"
"2086034289","2405532490","0.0769231"
"2405532490","2086034289","0.0769231"
"2086034289","2416450481","0.576923"
"2416450481","2086034289","0.576923"
"2128098381","2167160593","0.160256"
"2167160593","2128098381","0.160256"
"2128098381","2405532490","0.160256"
"2405532490","2128098381","0.160256"
"2128098381","2416450481","0.160256"
"2416450481","2128098381","0.160256"
"2167160593","2405532490","0.99359"
"2405532490","2167160593","0.99359"
"2167160593","2416450481","0.160256"
"2416450481","2167160593","0.160256"
"2405532490","2416450481","1.16026"
"2416450481","2405532490","1.16026"
"1520378624","9245423","2.16667"
"9245423","1520378624","2.16667"
"1787690559","9245423","0.910714"
"9245423","1787690559","0.910714"
"1901071501","9245423","2.11071"
"9245423","1901071501","2.11071"
"1993969836","9245423","0.166667"
"9245423","1993969836","0.166667"
"2061069343","9245423","0.166667"
"9245423","2061069343","0.166667"
"2128098381","9245423","0.166667"
"9245423","2128098381","0.166667"
"1520378624","2109305569","0.25"
"2109305569","1520378624","0.25"
"1520378624","2141735882","0.25"
"2141735882","1520378624","0.25"
"1520378624","2164761123","0.25"
"2164761123","1520378624","0.25"
"2071693620","2109305569","1.83333"
"2109305569","2071693620","1.83333"
"2071693620","2141735882","0.340909"
"2141735882","2071693620","0.340909"
"2071693620","2164761123","1.13258"
"2164761123","2071693620","1.13258"
"2109305569","2141735882","0.25"
"2141735882","2109305569","0.25"
"2109305569","2164761123","1.25"
"2164761123","2109305569","1.25"
"2141735882","2164761123","0.340909"
"2164761123","2141735882","0.340909"
"1520378624","2160934460","2"
"2160934460","1520378624","2"
"1520378624","1977552721","0.25"
"1977552721","1520378624","0.25"
"1977552721","2061069343","0.25"
"2061069343","1977552721","0.25"
"1977552721","2071693620","1.625"
"2071693620","1977552721","1.625"
"1977552721","2416450481","4.83333"
"2416450481","1977552721","4.83333"
"1598404753","1787690559","0.744048"
"1787690559","1598404753","0.744048"
"1598404753","1901071501","0.944048"
"1901071501","1598404753","0.944048"
"1598404753","2082169218","0.944048"
"2082169218","1598404753","0.944048"
"1598404753","2133867421","0.944048"
"2133867421","1598404753","0.944048"
"1598404753","2167160593","0.267857"
"2167160593","1598404753","0.267857"
"1598404753","2171536462","1.74329"
"2171536462","1598404753","1.74329"
"1598404753","9245423","1.31905"
"9245423","1598404753","1.31905"
"1787690559","2082169218","60.6702"
"2082169218","1787690559","60.6702"
"1787690559","2133867421","1.91071"
"2133867421","1787690559","1.91071"
"1787690559","2171536462","0.744048"
"2171536462","1787690559","0.744048"
"1901071501","2082169218","3.3369"
"2082169218","1901071501","3.3369"
"1901071501","2133867421","1.77738"
"2133867421","1901071501","1.77738"
"1901071501","2171536462","0.944048"
"2171536462","1901071501","0.944048"
"2082169218","2133867421","2.61071"
"2133867421","2082169218","2.61071"
"2082169218","2167160593","1.72619"
"2167160593","2082169218","1.72619"
"2082169218","2171536462","0.944048"
"2171536462","2082169218","0.944048"
"2082169218","9245423","0.944048"
"9245423","2082169218","0.944048"
"2133867421","2167160593","0.142857"
"2167160593","2133867421","0.142857"
"2133867421","2171536462","0.944048"
"2171536462","2133867421","0.944048"
"2133867421","9245423","0.944048"
"9245423","2133867421","0.944048"
"2167160593","2171536462","0.267857"
"2171536462","2167160593","0.267857"
"2167160593","9245423","0.267857"
"9245423","2167160593","0.267857"
"2171536462","9245423","2.31905"
"9245423","2171536462","2.31905"
"1598404753","2160934460","0.25"
"2160934460","1598404753","0.25"
"1598404753","2416450481","0.25"
"2416450481","1598404753","0.25"
"2160934460","2171536462","0.25"
"2171536462","2160934460","0.25"
"2160934460","2416450481","0.25"
"2416450481","2160934460","0.25"
"2160934460","9245423","0.25"
"9245423","2160934460","0.25"
"2171536462","2416450481","0.75"
"2416450481","2171536462","0.75"
"2416450481","9245423","2.58333"
"9245423","2416450481","2.58333"
"1598404753","1905264094","0.142857"
"1905264094","1598404753","0.142857"
"1787690559","1905264094","0.369048"
"1905264094","1787690559","0.369048"
"1901071501","1905264094","0.369048"
"1905264094","1901071501","0.369048"
"1905264094","2082169218","0.369048"
"2082169218","1905264094","0.369048"
"1905264094","2133867421","0.142857"
"2133867421","1905264094","0.142857"
"1905264094","2171536462","0.642857"
"2171536462","1905264094","0.642857"
"1905264094","9245423","0.97619"
"9245423","1905264094","0.97619"
"1598404753","1973989283","0.215909"
"1973989283","1598404753","0.215909"
"1598404753","2069373424","0.340909"
"2069373424","1598404753","0.340909"
"1787690559","2069373424","0.125"
"2069373424","1787690559","0.125"
"1901071501","2069373424","0.125"
"2069373424","1901071501","0.125"
"1973989283","2069373424","0.215909"
"2069373424","1973989283","0.215909"
"1973989283","2082169218","0.60119"
"2082169218","1973989283","0.60119"
"1973989283","2133867421","0.125"
"2133867421","1973989283","0.125"
"1973989283","2171536462","0.215909"
"2171536462","1973989283","0.215909"
"1973989283","9245423","0.125"
"9245423","1973989283","0.125"
"2069373424","2082169218","0.125"
"2082169218","2069373424","0.125"
"2069373424","2133867421","0.125"
"2133867421","2069373424","0.125"
"2069373424","2171536462","0.340909"
"2171536462","2069373424","0.340909"
"2069373424","9245423","0.583333"
"9245423","2069373424","0.583333"
"1598404753","2009225496","0.549242"
"2009225496","1598404753","0.549242"
"1598404753","2164761123","0.549242"
"2164761123","1598404753","0.549242"
"2009225496","2164761123","0.632576"
"2164761123","2009225496","0.632576"
"2009225496","2171536462","0.549242"
"2171536462","2009225496","0.549242"
"2164761123","2171536462","1.04924"
"2171536462","2164761123","1.04924"
"1598404753","1993969836","0.0909091"
"1993969836","1598404753","0.0909091"
"1598404753","2061069343","0.0909091"
"2061069343","1598404753","0.0909091"
"1598404753","2071693620","0.215909"
"2071693620","1598404753","0.215909"
"1598404753","2128098381","0.0909091"
"2128098381","1598404753","0.0909091"
"1598404753","2141735882","0.0909091"
"2141735882","1598404753","0.0909091"
"1598404753","2593439599","0.0909091"
"2593439599","1598404753","0.0909091"
"1973989283","2141735882","0.0909091"
"2141735882","1973989283","0.0909091"
"1973989283","2164761123","0.174242"
"2164761123","1973989283","0.174242"
"1973989283","2593439599","1.09091"
"2593439599","1973989283","1.09091"
"1993969836","2069373424","0.0909091"
"2069373424","1993969836","0.0909091"
"1993969836","2141735882","0.0909091"
"2141735882","1993969836","0.0909091"
"1993969836","2164761123","0.174242"
"2164761123","1993969836","0.174242"
"1993969836","2171536462","0.0909091"
"2171536462","1993969836","0.0909091"
"1993969836","2593439599","0.0909091"
"2593439599","1993969836","0.0909091"
"2009225496","2069373424","0.215909"
"2069373424","2009225496","0.215909"
"2009225496","2141735882","0.0909091"
"2141735882","2009225496","0.0909091"
"2009225496","2593439599","0.0909091"
"2593439599","2009225496","0.0909091"
"2061069343","2069373424","0.0909091"
"2069373424","2061069343","0.0909091"
"2061069343","2141735882","0.0909091"
"2141735882","2061069343","0.0909091"
"2061069343","2164761123","0.0909091"
"2164761123","2061069343","0.0909091"
"2061069343","2171536462","0.0909091"
"2171536462","2061069343","0.0909091"
"2061069343","2593439599","0.0909091"
"2593439599","2061069343","0.0909091"
"2069373424","2071693620","0.549242"
"2071693620","2069373424","0.549242"
"2069373424","2128098381","0.590909"
"2128098381","2069373424","0.590909"
"2069373424","2141735882","0.0909091"
"2141735882","2069373424","0.0909091"
"2069373424","2164761123","2.54924"
"2164761123","2069373424","2.54924"
"2069373424","2593439599","0.0909091"
"2593439599","2069373424","0.0909091"
"2071693620","2171536462","0.215909"
"2171536462","2071693620","0.215909"
"2071693620","2593439599","0.340909"
"2593439599","2071693620","0.340909"
"2128098381","2141735882","0.0909091"
"2141735882","2128098381","0.0909091"
"2128098381","2164761123","0.174242"
"2164761123","2128098381","0.174242"
"2128098381","2171536462","0.0909091"
"2171536462","2128098381","0.0909091"
"2128098381","2593439599","0.0909091"
"2593439599","2128098381","0.0909091"
"2141735882","2171536462","0.0909091"
"2171536462","2141735882","0.0909091"
"2141735882","2593439599","1.59091"
"2593439599","2141735882","1.59091"
"2164761123","2593439599","0.340909"
"2593439599","2164761123","0.340909"
"2171536462","2593439599","0.590909"
"2593439599","2171536462","0.590909"
"1598404753","1977552721","0.125"
"1977552721","1598404753","0.125"
"1977552721","2009225496","0.125"
"2009225496","1977552721","0.125"
"1977552721","2069373424","0.125"
"2069373424","1977552721","0.125"
"1977552721","2164761123","0.125"
"2164761123","1977552721","0.125"
"1977552721","2167160593","0.125"
"2167160593","1977552721","0.125"
"1977552721","2171536462","0.125"
"2171536462","1977552721","0.125"
"1977552721","9245423","0.458333"
"9245423","1977552721","0.458333"
"2009225496","9245423","0.125"
"9245423","2009225496","0.125"
"2069373424","2167160593","0.125"
"2167160593","2069373424","0.125"
"2071693620","9245423","1.45833"
"9245423","2071693620","1.45833"
"2164761123","2167160593","0.208333"
"2167160593","2164761123","0.208333"
"2164761123","9245423","0.958333"
"9245423","2164761123","0.958333"
"2060303375","2082169218","0.7"
"2082169218","2060303375","0.7"
"2082169218","2405532490","0.75"
"2405532490","2082169218","0.75"
"1787690559","2141735882","3.5"
"2141735882","1787690559","3.5"
"1787690559","2593439599","0.75"
"2593439599","1787690559","0.75"
"2071693620","2082169218","4.75952"
"2082169218","2071693620","4.75952"
"2082169218","2416450481","0.583333"
"2416450481","2082169218","0.583333"
"1787690559","2109305569","1.58333"
"2109305569","1787690559","1.58333"
"1905264094","1973989283","0.22619"
"1973989283","1905264094","0.22619"
"1905264094","2061069343","1.64286"
"2061069343","1905264094","1.64286"
"1905264094","2071693620","1.22619"
"2071693620","1905264094","1.22619"
"1905264094","2086034289","0.642857"
"2086034289","1905264094","0.642857"
"2061069343","2082169218","0.392857"
"2082169218","2061069343","0.392857"
"2082169218","2086034289","0.392857"
"2086034289","2082169218","0.392857"
"1787690559","2164761123","0.333333"
"2164761123","1787690559","0.333333"
"1901071501","2164761123","0.0833333"
"2164761123","1901071501","0.0833333"
"1905264094","1993969836","0.0833333"
"1993969836","1905264094","0.0833333"
"1905264094","2009225496","0.0833333"
"2009225496","1905264094","0.0833333"
"1905264094","2128098381","0.0833333"
"2128098381","1905264094","0.0833333"
"1905264094","2164761123","0.416667"
"2164761123","1905264094","0.416667"
"1905264094","2167160593","0.0833333"
"2167160593","1905264094","0.0833333"
"1905264094","2405532490","0.916667"
"2405532490","1905264094","0.916667"
"1905264094","2416450481","5.25"
"2416450481","1905264094","5.25"
"1993969836","2082169218","0.0833333"
"2082169218","1993969836","0.0833333"
"2009225496","2082169218","0.583333"
"2082169218","2009225496","0.583333"
"2082169218","2128098381","0.416667"
"2128098381","2082169218","0.416667"
"2082169218","2164761123","0.0833333"
"2164761123","2082169218","0.0833333"
"2164761123","2405532490","0.416667"
"2405532490","2164761123","0.416667"
"2164761123","2416450481","0.416667"
"2416450481","2164761123","0.416667"
"2082169218","2109305569","1.58333"
"2109305569","2082169218","1.58333"
"1787690559","2160934460","3.45"
"2160934460","1787690559","3.45"
"2071693620","2160934460","0.45"
"2160934460","2071693620","0.45"
"2160934460","2164761123","0.25"
"2164761123","2160934460","0.25"
"2160934460","2593439599","0.25"
"2593439599","2160934460","0.25"
"1787690559","2036497664","0.2"
"2036497664","1787690559","0.2"
"2036497664","2060303375","0.2"
"2060303375","2036497664","0.2"
"2036497664","2071693620","0.2"
"2071693620","2036497664","0.2"
"2036497664","2082169218","0.2"
"2082169218","2036497664","0.2"
"2036497664","2160934460","0.2"
"2160934460","2036497664","0.2"
"2060303375","2160934460","0.2"
"2160934460","2060303375","0.2"
"2082169218","2160934460","0.2"
"2160934460","2082169218","0.2"
"1973989283","2109305569","0.25"
"2109305569","1973989283","0.25"
"2128098381","2133867421","2.33333"
"2133867421","2128098381","2.33333"
"1901071501","3005611719","1.25"
"3005611719","1901071501","1.25"
"1901071501","1977552721","0.25"
"1977552721","1901071501","0.25"
"1977552721","3005611719","0.25"
"3005611719","1977552721","0.25"
"2071693620","3005611719","0.25"
"3005611719","2071693620","0.25"
"2416450481","3005611719","1.25"
"3005611719","2416450481","1.25"
"1905264094","1977552721","0.833333"
"1977552721","1905264094","0.833333"
"1905264094","2593439599","0.5"
"2593439599","1905264094","0.5"
"1977552721","2060303375","1"
"2060303375","1977552721","1"
"1977552721","2141735882","0.5"
"2141735882","1977552721","0.5"
"2060303375","2141735882","0.5"
"2141735882","2060303375","0.5"
"2009225496","2133867421","1"
"2133867421","2009225496","1"
"2036497664","2750218448","0.5"
"2750218448","2036497664","0.5"
"2036497664","3005611719","1.5"
"3005611719","2036497664","1.5"
"2750218448","3005611719","5.5"
"3005611719","2750218448","5.5"
"2036497664","2405532490","1"
"2405532490","2036497664","1"
"2036497664","2061069343","1"
"2061069343","2036497664","1"
"2060303375","2069373424","0.5"
"2069373424","2060303375","0.5"
"2069373424","2160934460","1"
"2160934460","2069373424","1"
"2160934460","2750218448","1"
"2750218448","2160934460","1"
"2416450481","2750218448","2"
"2750218448","2416450481","2"
"2750218448","9245423","1"
"9245423","2750218448","1"
