"130016900","1971658191","1.14286"
"1971658191","130016900","1.14286"
"130016900","1770493650","1.14286"
"1770493650","130016900","1.14286"
"130016900","2042487592","0.142857"
"2042487592","130016900","0.142857"
"130016900","2089132965","2.64286"
"2089132965","130016900","2.64286"
"130016900","2108272823","0.642857"
"2108272823","130016900","0.642857"
"130016900","2132431311","0.142857"
"2132431311","130016900","0.142857"
"130016900","79389585","0.142857"
"79389585","130016900","0.142857"
"1770493650","1971658191","0.142857"
"1971658191","1770493650","0.142857"
"1770493650","2042487592","0.392857"
"2042487592","1770493650","0.392857"
"1770493650","2089132965","3.14286"
"2089132965","1770493650","3.14286"
"1770493650","2108272823","0.142857"
"2108272823","1770493650","0.142857"
"1770493650","2132431311","0.142857"
"2132431311","1770493650","0.142857"
"1770493650","79389585","2.14286"
"79389585","1770493650","2.14286"
"1971658191","2042487592","1.09286"
"2042487592","1971658191","1.09286"
"1971658191","2089132965","2.34286"
"2089132965","1971658191","2.34286"
"1971658191","2108272823","0.142857"
"2108272823","1971658191","0.142857"
"1971658191","2132431311","0.142857"
"2132431311","1971658191","0.142857"
"1971658191","79389585","0.142857"
"79389585","1971658191","0.142857"
"2042487592","2089132965","0.509524"
"2089132965","2042487592","0.509524"
"2042487592","2108272823","0.142857"
"2108272823","2042487592","0.142857"
"2042487592","2132431311","1.89286"
"2132431311","2042487592","1.89286"
"2042487592","79389585","0.309524"
"79389585","2042487592","0.309524"
"2089132965","2108272823","0.642857"
"2108272823","2089132965","0.642857"
"2089132965","2132431311","2.89286"
"2132431311","2089132965","2.89286"
"2089132965","79389585","2.30952"
"79389585","2089132965","2.30952"
"2108272823","2132431311","0.142857"
"2132431311","2108272823","0.142857"
"2108272823","79389585","0.47619"
"79389585","2108272823","0.47619"
"2132431311","79389585","0.142857"
"79389585","2132431311","0.142857"
"1479913011","1506252952","2.09286"
"1506252952","1479913011","2.09286"
"1479913011","1971658191","0.45"
"1971658191","1479913011","0.45"
"1479913011","2042487592","3.75952"
"2042487592","1479913011","3.75952"
"1479913011","2089132965","0.366667"
"2089132965","1479913011","0.366667"
"1479913011","2136157705","0.759524"
"2136157705","1479913011","0.759524"
"1506252952","1971658191","1.7"
"1971658191","1506252952","1.7"
"1506252952","2042487592","2.00952"
"2042487592","1506252952","2.00952"
"1506252952","2089132965","0.866667"
"2089132965","1506252952","0.866667"
"1506252952","2136157705","0.509524"
"2136157705","1506252952","0.509524"
"1971658191","2136157705","0.45"
"2136157705","1971658191","0.45"
"2042487592","2136157705","0.759524"
"2136157705","2042487592","0.759524"
"2089132965","2136157705","0.366667"
"2136157705","2089132965","0.366667"
"1479913011","2132431311","0.75"
"2132431311","1479913011","0.75"
"1479913011","1579657198","0.892857"
"1579657198","1479913011","0.892857"
"1506252952","1579657198","2.80952"
"1579657198","1506252952","2.80952"
"1506252952","2132431311","0.666667"
"2132431311","1506252952","0.666667"
"1579657198","2042487592","0.392857"
"2042487592","1579657198","0.392857"
"1579657198","2132431311","1.16667"
"2132431311","1579657198","1.16667"
"1479913011","1770493650","0.25"
"1770493650","1479913011","0.25"
"1479913011","2069627375","1.05952"
"2069627375","1479913011","1.05952"
"1506252952","1770493650","0.75"
"1770493650","1506252952","0.75"
"1506252952","2069627375","13.9762"
"2069627375","1506252952","13.9762"
"1770493650","2069627375","1.75"
"2069627375","1770493650","1.75"
"2042487592","2069627375","1.80952"
"2069627375","2042487592","1.80952"
"1479913011","1603303300","0.142857"
"1603303300","1479913011","0.142857"
"1479913011","2058732278","0.142857"
"2058732278","1479913011","0.142857"
"1506252952","1603303300","0.392857"
"1603303300","1506252952","0.392857"
"1506252952","2058732278","0.309524"
"2058732278","1506252952","0.309524"
"1579657198","1603303300","0.142857"
"1603303300","1579657198","0.142857"
"1579657198","2058732278","2.97619"
"2058732278","1579657198","2.97619"
"1579657198","2069627375","0.559524"
"2069627375","1579657198","0.559524"
"1579657198","2136157705","1.14286"
"2136157705","1579657198","1.14286"
"1603303300","2042487592","0.142857"
"2042487592","1603303300","0.142857"
"1603303300","2058732278","0.142857"
"2058732278","1603303300","0.142857"
"1603303300","2069627375","0.392857"
"2069627375","1603303300","0.392857"
"1603303300","2136157705","0.142857"
"2136157705","1603303300","0.142857"
"2042487592","2058732278","0.142857"
"2058732278","2042487592","0.142857"
"2058732278","2069627375","1.30952"
"2069627375","2058732278","1.30952"
"2058732278","2136157705","0.142857"
"2136157705","2058732278","0.142857"
"2069627375","2136157705","1.55952"
"2136157705","2069627375","1.55952"
"1971658191","2069627375","2.25"
"2069627375","1971658191","2.25"
"1479913011","79389585","0.5"
"79389585","1479913011","0.5"
"1506252952","79389585","0.5"
"79389585","1506252952","0.5"
"2069627375","2089132965","0.666667"
"2089132965","2069627375","0.666667"
"2069627375","79389585","0.166667"
"79389585","2069627375","0.166667"
"2136157705","79389585","0.166667"
"79389585","2136157705","0.166667"
"1479913011","1573375838","0.25"
"1573375838","1479913011","0.25"
"1479913011","1999034930","0.25"
"1999034930","1479913011","0.25"
"1506252952","1573375838","1.66667"
"1573375838","1506252952","1.66667"
"1506252952","1999034930","0.75"
"1999034930","1506252952","0.75"
"1573375838","1999034930","0.75"
"1999034930","1573375838","0.75"
"1573375838","2069627375","1.16667"
"2069627375","1573375838","1.16667"
"1999034930","2069627375","0.75"
"2069627375","1999034930","0.75"
"1479913011","2154499171","1"
"2154499171","1479913011","1"
"1579657198","2154499171","2.5"
"2154499171","1579657198","2.5"
"1506252952","2154499171","0.666667"
"2154499171","1506252952","0.666667"
"1479913011","2108272823","0.333333"
"2108272823","1479913011","0.333333"
"1506252952","2108272823","0.333333"
"2108272823","1506252952","0.333333"
"1573375838","1603303300","0.25"
"1603303300","1573375838","0.25"
"1573375838","2089132965","0.25"
"2089132965","1573375838","0.25"
"1603303300","2089132965","0.25"
"2089132965","1603303300","0.25"
"1573375838","1579657198","1.16667"
"1579657198","1573375838","1.16667"
"1573375838","2058732278","0.166667"
"2058732278","1573375838","0.166667"
"1573375838","2132431311","1.16667"
"2132431311","1573375838","1.16667"
"1573375838","2154499171","1.16667"
"2154499171","1573375838","1.16667"
"2058732278","2132431311","0.166667"
"2132431311","2058732278","0.166667"
"2058732278","2154499171","3"
"2154499171","2058732278","3"
"2069627375","2132431311","0.416667"
"2132431311","2069627375","0.416667"
"2069627375","2154499171","0.166667"
"2154499171","2069627375","0.166667"
"2132431311","2154499171","1.16667"
"2154499171","2132431311","1.16667"
"1999034930","2042487592","0.5"
"2042487592","1999034930","0.5"
"1579657198","2089132965","0.75"
"2089132965","1579657198","0.75"
"1560737159","1980601824","1"
"1980601824","1560737159","1"
"1579657198","1980601824","0.333333"
"1980601824","1579657198","0.333333"
"1980601824","2058732278","0.333333"
"2058732278","1980601824","0.333333"
"1980601824","2154499171","0.333333"
"2154499171","1980601824","0.333333"
"1579657198","1999034930","0.833333"
"1999034930","1579657198","0.833333"
"1999034930","2154499171","1"
"2154499171","1999034930","1"
"1579657198","1971658191","1.33333"
"1971658191","1579657198","1.33333"
"1971658191","1999034930","0.333333"
"1999034930","1971658191","0.333333"
"1971658191","2058732278","0.333333"
"2058732278","1971658191","0.333333"
"1999034930","2058732278","1.83333"
"2058732278","1999034930","1.83333"
