"1167383870","2011072533","2.5"
"2011072533","1167383870","2.5"
"1167383870","2020679445","3"
"2020679445","1167383870","3"
"2011072533","2020679445","3.06667"
"2020679445","2011072533","3.06667"
"1167383870","1828918404","4.28333"
"1828918404","1167383870","4.28333"
"1167383870","2134010515","1"
"2134010515","1167383870","1"
"1167383870","2009682549","0.583333"
"2009682549","1167383870","0.583333"
"1167383870","2032199835","0.25"
"2032199835","1167383870","0.25"
"1167383870","2094878339","1.08333"
"2094878339","1167383870","1.08333"
"1828918404","2009682549","0.583333"
"2009682549","1828918404","0.583333"
"1828918404","2032199835","0.25"
"2032199835","1828918404","0.25"
"1828918404","2094878339","0.583333"
"2094878339","1828918404","0.583333"
"2009682549","2032199835","6.08333"
"2032199835","2009682549","6.08333"
"2009682549","2094878339","6.41667"
"2094878339","2009682549","6.41667"
"2032199835","2094878339","5.91667"
"2094878339","2032199835","5.91667"
"1167383870","1553509686","0.2"
"1553509686","1167383870","0.2"
"1167383870","1970584927","0.2"
"1970584927","1167383870","0.2"
"1167383870","2020615548","0.2"
"2020615548","1167383870","0.2"
"1167383870","2479088077","1.2"
"2479088077","1167383870","1.2"
"1553509686","1828918404","0.2"
"1828918404","1553509686","0.2"
"1553509686","1970584927","10.7667"
"1970584927","1553509686","10.7667"
"1553509686","2020615548","5.76667"
"2020615548","1553509686","5.76667"
"1553509686","2479088077","0.2"
"2479088077","1553509686","0.2"
"1828918404","1970584927","0.2"
"1970584927","1828918404","0.2"
"1828918404","2020615548","0.2"
"2020615548","1828918404","0.2"
"1828918404","2479088077","0.2"
"2479088077","1828918404","0.2"
"1970584927","2020615548","4.51667"
"2020615548","1970584927","4.51667"
"1970584927","2479088077","0.2"
"2479088077","1970584927","0.2"
"2020615548","2479088077","0.2"
"2479088077","2020615548","0.2"
"1167383870","2032646517","1"
"2032646517","1167383870","1"
"1828918404","2020679445","1.36667"
"2020679445","1828918404","1.36667"
"1167383870","2092414635","1.5"
"2092414635","1167383870","1.5"
"2092414635","2094878339","0.5"
"2094878339","2092414635","0.5"
"1167383870","2342877758","0.5"
"2342877758","1167383870","0.5"
"2020679445","2342877758","8.2"
"2342877758","2020679445","8.2"
"1167383870","2599238723","2"
"2599238723","1167383870","2"
"1167383870","2768392855","1"
"2768392855","1167383870","1"
"1167383870","2655124276","3"
"2655124276","1167383870","3"
"1167383870","2604951413","0.5"
"2604951413","1167383870","0.5"
"2020679445","2604951413","0.5"
"2604951413","2020679445","0.5"
"139228230","1991638061","1"
"1991638061","139228230","1"
"1553509686","1991638061","3.15"
"1991638061","1553509686","3.15"
"1553509686","2068628594","8.06667"
"2068628594","1553509686","8.06667"
"1991638061","2068628594","2.9"
"2068628594","1991638061","2.9"
"2020615548","2068628594","2.31667"
"2068628594","2020615548","2.31667"
"1553509686","2030715551","0.65"
"2030715551","1553509686","0.65"
"1970584927","2030715551","0.9"
"2030715551","1970584927","0.9"
"1970584927","2068628594","3.81667"
"2068628594","1970584927","3.81667"
"2020615548","2030715551","4.9"
"2030715551","2020615548","4.9"
"2030715551","2068628594","0.9"
"2068628594","2030715551","0.9"
"1970584927","1991638061","2.4"
"1991638061","1970584927","2.4"
"1991638061","2020615548","1.9"
"2020615548","1991638061","1.9"
"1991638061","2030715551","1.65"
"2030715551","1991638061","1.65"
"1592044350","2120051256","1.2"
"2120051256","1592044350","1.2"
"1592044350","2011072533","5.03333"
"2011072533","1592044350","5.03333"
"1592044350","2020679445","0.533333"
"2020679445","1592044350","0.533333"
"1592044350","2092414635","0.333333"
"2092414635","1592044350","0.333333"
"2011072533","2092414635","0.333333"
"2092414635","2011072533","0.333333"
"2020679445","2092414635","0.533333"
"2092414635","2020679445","0.533333"
"1592044350","2042562418","0.2"
"2042562418","1592044350","0.2"
"1592044350","2094878339","0.2"
"2094878339","1592044350","0.2"
"2011072533","2042562418","0.4"
"2042562418","2011072533","0.4"
"2011072533","2094878339","0.2"
"2094878339","2011072533","0.2"
"2011072533","2120051256","0.2"
"2120051256","2011072533","0.2"
"2020679445","2042562418","0.4"
"2042562418","2020679445","0.4"
"2020679445","2094878339","1.53333"
"2094878339","2020679445","1.53333"
"2020679445","2120051256","1.2"
"2120051256","2020679445","1.2"
"2042562418","2094878339","0.2"
"2094878339","2042562418","0.2"
"2042562418","2120051256","0.2"
"2120051256","2042562418","0.2"
"2094878339","2120051256","0.2"
"2120051256","2094878339","0.2"
"1592044350","2008822184","1"
"2008822184","1592044350","1"
"1592044350","1975627322","0.5"
"1975627322","1592044350","0.5"
"1975627322","2011072533","0.7"
"2011072533","1975627322","0.7"
"1592044350","2342877758","1"
"2342877758","1592044350","1"
"1828918404","2120051256","2"
"2120051256","1828918404","2"
"1828918404","2342877758","0.866667"
"2342877758","1828918404","0.866667"
"1828918404","2768392855","0.333333"
"2768392855","1828918404","0.333333"
"2020679445","2768392855","0.333333"
"2768392855","2020679445","0.333333"
"2342877758","2768392855","2"
"2768392855","2342877758","2"
"1828918404","2092414635","0.2"
"2092414635","1828918404","0.2"
"1828918404","2599238723","0.533333"
"2599238723","1828918404","0.533333"
"1828918404","2655124276","0.2"
"2655124276","1828918404","0.2"
"2020679445","2599238723","1.53333"
"2599238723","2020679445","1.53333"
"2020679445","2655124276","1.2"
"2655124276","2020679445","1.2"
"2092414635","2342877758","0.2"
"2342877758","2092414635","0.2"
"2092414635","2599238723","1.2"
"2599238723","2092414635","1.2"
"2092414635","2655124276","0.2"
"2655124276","2092414635","0.2"
"2342877758","2599238723","1.53333"
"2599238723","2342877758","1.53333"
"2342877758","2655124276","4.86667"
"2655124276","2342877758","4.86667"
"2599238723","2655124276","1.2"
"2655124276","2599238723","1.2"
"193941980","2601003474","3"
"2601003474","193941980","3"
"1970584927","1975864252","1"
"1975864252","1970584927","1"
"1970584927","2120051256","1"
"2120051256","1970584927","1"
"1970584927","2010712005","1"
"2010712005","1970584927","1"
"1970584927","2601003474","1"
"2601003474","1970584927","1"
"1975627322","2009682549","1"
"2009682549","1975627322","1"
"1975627322","1975652117","2"
"1975652117","1975627322","2"
"1975627322","2031993859","1.33333"
"2031993859","1975627322","1.33333"
"1975627322","1977955327","0.166667"
"1977955327","1975627322","0.166667"
"1975627322","2010712005","0.366667"
"2010712005","1975627322","0.366667"
"1975627322","2026775901","1.16667"
"2026775901","1975627322","1.16667"
"1975627322","2042562418","1.95"
"2042562418","1975627322","1.95"
"1975627322","2059848388","1.16667"
"2059848388","1975627322","1.16667"
"1975627322","2342333867","0.166667"
"2342333867","1975627322","0.166667"
"1977955327","2010712005","0.166667"
"2010712005","1977955327","0.166667"
"1977955327","2026775901","0.833333"
"2026775901","1977955327","0.833333"
"1977955327","2042562418","0.166667"
"2042562418","1977955327","0.166667"
"1977955327","2059848388","0.166667"
"2059848388","1977955327","0.166667"
"1977955327","2342333867","2.5"
"2342333867","1977955327","2.5"
"2010712005","2026775901","0.166667"
"2026775901","2010712005","0.166667"
"2010712005","2042562418","1.36667"
"2042562418","2010712005","1.36667"
"2010712005","2059848388","0.166667"
"2059848388","2010712005","0.166667"
"2010712005","2342333867","0.166667"
"2342333867","2010712005","0.166667"
"2026775901","2042562418","2.66667"
"2042562418","2026775901","2.66667"
"2026775901","2059848388","1.5"
"2059848388","2026775901","1.5"
"2026775901","2342333867","0.166667"
"2342333867","2026775901","0.166667"
"2042562418","2059848388","0.166667"
"2059848388","2042562418","0.166667"
"2042562418","2342333867","0.166667"
"2342333867","2042562418","0.166667"
"2059848388","2342333867","0.166667"
"2342333867","2059848388","0.166667"
"1975627322","2603290394","3.11667"
"2603290394","1975627322","3.11667"
"1975627322","2020679445","0.2"
"2020679445","1975627322","0.2"
"2010712005","2011072533","0.2"
"2011072533","2010712005","0.2"
"2010712005","2020679445","0.2"
"2020679445","2010712005","0.2"
"2010712005","2603290394","0.2"
"2603290394","2010712005","0.2"
"2011072533","2603290394","0.2"
"2603290394","2011072533","0.2"
"2020679445","2603290394","0.2"
"2603290394","2020679445","0.2"
"2042562418","2603290394","0.783333"
"2603290394","2042562418","0.783333"
"1975627322","2232209423","1"
"2232209423","1975627322","1"
"1975627322","2008822184","0.25"
"2008822184","1975627322","0.25"
"1975627322","2092414635","0.916667"
"2092414635","1975627322","0.916667"
"2008822184","2042562418","0.25"
"2042562418","2008822184","0.25"
"2008822184","2092414635","0.25"
"2092414635","2008822184","0.25"
"2008822184","2603290394","1.25"
"2603290394","2008822184","1.25"
"2042562418","2092414635","0.583333"
"2092414635","2042562418","0.583333"
"2092414635","2603290394","0.916667"
"2603290394","2092414635","0.916667"
"1975627322","2032646517","2"
"2032646517","1975627322","2"
"2031993859","2092414635","0.333333"
"2092414635","2031993859","0.333333"
"2031993859","2603290394","1.33333"
"2603290394","2031993859","1.33333"
"1975652117","1975864252","6"
"1975864252","1975652117","6"
"1975652117","2120051256","1.5"
"2120051256","1975652117","1.5"
"1975652117","2601003474","0.5"
"2601003474","1975652117","0.5"
"2120051256","2601003474","0.75"
"2601003474","2120051256","0.75"
"1975652117","2094878339","17.1667"
"2094878339","1975652117","17.1667"
"1975652117","2032199835","3.16667"
"2032199835","1975652117","3.16667"
"1975652117","2603290394","3"
"2603290394","1975652117","3"
"1975652117","2095519076","6"
"2095519076","1975652117","6"
"1975652117","2009682549","5.83333"
"2009682549","1975652117","5.83333"
"1975652117","2026775901","1"
"2026775901","1975652117","1"
"1975652117","2008822184","1"
"2008822184","1975652117","1"
"1975652117","2042562418","0.5"
"2042562418","1975652117","0.5"
"2009682549","2042562418","1.5"
"2042562418","2009682549","1.5"
"1975652117","2020679445","0.333333"
"2020679445","1975652117","0.333333"
"2020679445","2032199835","0.333333"
"2032199835","2020679445","0.333333"
"1975652117","2032646517","1"
"2032646517","1975652117","1"
"1975652117","2011072533","1"
"2011072533","1975652117","1"
"1975864252","2032646517","4.33333"
"2032646517","1975864252","4.33333"
"1975864252","1977955327","3"
"1977955327","1975864252","3"
"1975864252","2342333867","0.333333"
"2342333867","1975864252","0.333333"
"1977955327","2032646517","0.333333"
"2032646517","1977955327","0.333333"
"2032646517","2342333867","0.333333"
"2342333867","2032646517","0.333333"
"1975864252","2095519076","4"
"2095519076","1975864252","4"
"1975864252","2026775901","6.16667"
"2026775901","1975864252","6.16667"
"1975864252","2120051256","0.5"
"2120051256","1975864252","0.5"
"2032646517","2120051256","2.5"
"2120051256","2032646517","2.5"
"1975864252","73263655","1.16667"
"73263655","1975864252","1.16667"
"2026775901","73263655","2.66667"
"73263655","2026775901","2.66667"
"1975864252","2037077419","0.5"
"2037077419","1975864252","0.5"
"2032646517","2037077419","1"
"2037077419","2032646517","1"
"1975864252","2603290394","2"
"2603290394","1975864252","2"
"1977955327","73263655","0.666667"
"73263655","1977955327","0.666667"
"1975864252","2134010515","1"
"2134010515","1975864252","1"
"1975864252","2768392855","1"
"2768392855","1975864252","1"
"1991638061","2011072533","1"
"2011072533","1991638061","1"
"1993549680","2059848388","1"
"2059848388","1993549680","1"
"2008822184","2009682549","1"
"2009682549","2008822184","1"
"2008822184","2010712005","1.5"
"2010712005","2008822184","1.5"
"2009682549","2010712005","0.5"
"2010712005","2009682549","0.5"
"2008822184","2037077419","1"
"2037077419","2008822184","1"
"2008822184","2032199835","0.5"
"2032199835","2008822184","0.5"
"2008822184","2120051256","1.5"
"2120051256","2008822184","1.5"
"2008822184","2095519076","1.5"
"2095519076","2008822184","1.5"
"2095519076","2120051256","0.75"
"2120051256","2095519076","0.75"
"2008822184","2020679445","1"
"2020679445","2008822184","1"
"2008822184","2599238723","1"
"2599238723","2008822184","1"
"2008822184","2011072533","1"
"2011072533","2008822184","1"
"2009682549","2026775901","2.5"
"2026775901","2009682549","2.5"
"2009682549","2037077419","1"
"2037077419","2009682549","1"
"2009682549","2059848388","1"
"2059848388","2009682549","1"
"2009682549","2095519076","0.5"
"2095519076","2009682549","0.5"
"2094878339","2095519076","0.5"
"2095519076","2094878339","0.5"
"2009682549","2032646517","0.5"
"2032646517","2009682549","0.5"
"2026775901","2032646517","7.33333"
"2032646517","2026775901","7.33333"
"2010712005","2032646517","1"
"2032646517","2010712005","1"
"2010712005","2599238723","1"
"2599238723","2010712005","1"
"2011072533","2026775901","1"
"2026775901","2011072533","1"
"2011072533","2342877758","5.5"
"2342877758","2011072533","5.5"
"2011072533","2601003474","4"
"2601003474","2011072533","4"
"2011072533","2768392855","3.16667"
"2768392855","2011072533","3.16667"
"2011072533","2134010515","0.333333"
"2134010515","2011072533","0.333333"
"2020679445","2134010515","1.33333"
"2134010515","2020679445","1.33333"
"2134010515","2342877758","1.33333"
"2342877758","2134010515","1.33333"
"2011072533","2655124276","4.66667"
"2655124276","2011072533","4.66667"
"2655124276","2768392855","1.66667"
"2768392855","2655124276","1.66667"
"2011072533","2902767540","1"
"2902767540","2011072533","1"
"2011072533","2949074561","0.5"
"2949074561","2011072533","0.5"
"2768392855","2949074561","0.5"
"2949074561","2768392855","0.5"
"2014814286","2032646517","1"
"2032646517","2014814286","1"
"2014814286","2020615548","1"
"2020615548","2014814286","1"
"2015144267","2095519076","0.25"
"2095519076","2015144267","0.25"
"2015144267","2120051256","0.25"
"2120051256","2015144267","0.25"
"2015144267","2601003474","0.25"
"2601003474","2015144267","0.25"
"2015144267","2603290394","0.25"
"2603290394","2015144267","0.25"
"2095519076","2601003474","0.25"
"2601003474","2095519076","0.25"
"2095519076","2603290394","6.75"
"2603290394","2095519076","6.75"
"2120051256","2603290394","1.25"
"2603290394","2120051256","1.25"
"2601003474","2603290394","0.25"
"2603290394","2601003474","0.25"
"2015144267","2322994051","1"
"2322994051","2015144267","1"
"2020615548","2601003474","1"
"2601003474","2020615548","1"
"2032646517","2042562418","1.5"
"2042562418","2032646517","1.5"
"2026775901","2095519076","1.5"
"2095519076","2026775901","1.5"
"2032646517","2095519076","1.5"
"2095519076","2032646517","1.5"
"2026775901","2342877758","0.333333"
"2342877758","2026775901","0.333333"
"2032646517","2059848388","0.333333"
"2059848388","2032646517","0.333333"
"2032646517","2342877758","0.333333"
"2342877758","2032646517","0.333333"
"2059848388","2342877758","0.333333"
"2342877758","2059848388","0.333333"
"2026775901","2599238723","0.5"
"2599238723","2026775901","0.5"
"2599238723","73263655","0.5"
"73263655","2599238723","0.5"
"2026775901","2037077419","0.5"
"2037077419","2026775901","0.5"
"2032199835","2902243749","0.5"
"2902243749","2032199835","0.5"
"2094878339","2902243749","1.5"
"2902243749","2094878339","1.5"
"2032646517","73263655","0.5"
"73263655","2032646517","0.5"
"2095519076","73263655","0.5"
"73263655","2095519076","0.5"
"2032646517","2603290394","1.5"
"2603290394","2032646517","1.5"
"2032646517","2134010515","1"
"2134010515","2032646517","1"
"2032646517","2092414635","1"
"2092414635","2032646517","1"
"2037077419","2120051256","2"
"2120051256","2037077419","2"
"2037077419","2601003474","1"
"2601003474","2037077419","1"
"2037077419","2095519076","1"
"2095519076","2037077419","1"
"2042562418","2095519076","1"
"2095519076","2042562418","1"
"2059848388","2134010515","1"
"2134010515","2059848388","1"
"2059848388","2092595282","1"
"2092595282","2059848388","1"
"2068628594","2768392855","1"
"2768392855","2068628594","1"
"2095519076","2232209423","1"
"2232209423","2095519076","1"
"2120051256","2134010515","1"
"2134010515","2120051256","1"
"2342877758","2603290394","1"
"2603290394","2342877758","1"
"2342877758","2885799613","3.5"
"2885799613","2342877758","3.5"
"2342877758","2949074561","0.5"
"2949074561","2342877758","0.5"
"2885799613","2949074561","0.5"
"2949074561","2885799613","0.5"
"2503702355","2601003474","1"
"2601003474","2503702355","1"
"2599238723","2885799613","1"
"2885799613","2599238723","1"
"2599238723","2768392855","1"
"2768392855","2599238723","1"
"2655124276","2885298041","1"
"2885298041","2655124276","1"
"2768392855","2902767540","2"
"2902767540","2768392855","2"
"2768392855","2885298041","1"
"2885298041","2768392855","1"
"2898895018","2899131782","0.5"
"2899131782","2898895018","0.5"
"2898895018","2902767540","0.5"
"2902767540","2898895018","0.5"
"2899131782","2902767540","0.5"
"2902767540","2899131782","0.5"
