"143147171","1541063262","0",\N
"143147171","1549891226","0",\N
"143147171","1553589896","0",\N
"143147171","1555946950","0",\N
"143147171","1593874741","0",\N
"143147171","165425967","0",\N
"143147171","194952179","0",\N
"143147171","1971330554","0",\N
"143147171","1982328732","0",\N
"143147171","2002691587","1",\N
"143147171","2013999503","0",\N
"143147171","2031714065","0",\N
"143147171","2033392551","1",\N
"143147171","2033526593","0",\N
"143147171","2042365591","0",\N
"143147171","2076140697","0",\N
"143147171","2087527532","0",\N
"143147171","2124545556","0",\N
"143147171","2128628043","1",\N
"143147171","2134429122","0",\N
"143147171","2143772272","0",\N
"143147171","2153887189","0",\N
"143147171","2157922094","0",\N
"143147171","2158641382","0",\N
"143147171","2161825580","0",\N
"143147171","2162126440","0",\N
"143147171","2169833809","0",\N
"143147171","2171122695","0",\N
"143147171","2592107698","1",\N
"143147171","2798692074","0",\N
"143147171","2955158802","0",\N
"1498728243","107768899","1",\N
"1498728243","116355956","0",\N
"1498728243","1491642900","0",\N
"1498728243","1498861602","0",\N
"1498728243","1500826252","0",\N
"1498728243","1511531730","0",\N
"1498728243","1523013478","0",\N
"1498728243","1550435668","1",\N
"1498728243","1559402073","0",\N
"1498728243","1586338668","0",\N
"1498728243","1598258896","0",\N
"1498728243","1603383066","0",\N
"1498728243","168078688","0",\N
"1498728243","2009464583","0",\N
"1498728243","2034676877","0",\N
"1498728243","2052436826","0",\N
"1498728243","2061392495","1",\N
"1498728243","2087505639","0",\N
"1498728243","2093111544","1",\N
"1498728243","2169526198","1",\N
"1498728243","3832022","0",\N
"1498728243","56707503","0",\N
"1545142047","125104989","0",\N
"1545142047","137102142","0",\N
"1545142047","1518695183","0",\N
"1545142047","1555946950","0",\N
"1545142047","1579890282","0",\N
"1545142047","1605876683","0",\N
"1545142047","1979857620","0",\N
"1545142047","1988095917","0",\N
"1545142047","1998017916","0",\N
"1545142047","2029326070","0",\N
"1545142047","2049479585","1",\N
"1545142047","2078404830","0",\N
"1545142047","2082285894","0",\N
"1545142047","2086970510","0",\N
"1545142047","2091348864","0",\N
"1545142047","2123396057","0",\N
"1545142047","2139272205","0",\N
"1545142047","2158148130","0",\N
"1545142047","2915021720","0",\N
"1545142047","3000135916","0",\N
"1545142047","38226901","0",\N
"1545142047","606283019","0",\N
"1584946103","100098737","0",\N
"1584946103","1480729609","0",\N
"1584946103","1485332185","0",\N
"1584946103","1521250667","0",\N
"1584946103","1581435998","0",\N
"1584946103","1586338668","0",\N
"1584946103","1598625331","0",\N
"1584946103","1607552714","0",\N
"1584946103","174743476","0",\N
"1584946103","1766332311","0",\N
"1584946103","1968386045","0",\N
"1584946103","1979101142","0",\N
"1584946103","1992643862","0",\N
"1584946103","1994009914","1",\N
"1584946103","2006868050","0",\N
"1584946103","2011087973","0",\N
"1584946103","2016433302","0",\N
"1584946103","2022060249","0",\N
"1584946103","2036748304","0",\N
"1584946103","2072634471","0",\N
"1584946103","2083977009","0",\N
"1584946103","2086747974","0",\N
"1584946103","2098036931","0",\N
"1584946103","2121757274","0",\N
"1584946103","2146163384","0",\N
"1584946103","33901518","1",\N
"1584946103","76870825","0",\N
"1594075998","1480729609","0",\N
"1594075998","1503740743","0",\N
"1594075998","2023578426","0",\N
"1594075998","2112962394","0",\N
"1594075998","2123396057","0",\N
"1594075998","3000611491","0",\N
"1600061684","100060371","0",\N
"1600061684","1494051470","0",\N
"1600061684","1505455772","0",\N
"1600061684","1541434994","0",\N
"1600061684","1608776253","1",\N
"1600061684","1672891595","0",\N
"1600061684","1968513265","0",\N
"1600061684","1968516603","0",\N
"1600061684","1987862681","0",\N
"1600061684","2000740920","0",\N
"1600061684","2016531106","0",\N
"1600061684","2025594092","0",\N
"1600061684","2094818741","0",\N
"1600061684","2128770734","0",\N
"1600061684","2145067417","0",\N
"1600061684","2221309524","0",\N
"1600061684","67234687","0",\N
"1608776253","101711680","0",\N
"1608776253","125332145","0",\N
"1608776253","1494051470","0",\N
"1608776253","1541434994","0",\N
"1608776253","1584946103","1",\N
"1608776253","1929233465","1",\N
"1608776253","2016531106","0",\N
"1608776253","2019806829","1",\N
"1608776253","2059799630","0",\N
"1608776253","2065555531","0",\N
"1608776253","2094818741","0",\N
"1608776253","2148517439","0",\N
"1608776253","2792082108","0",\N
"1608776253","52074576","0",\N
"1608776253","8723063","0",\N
"1820469889","1485332185","0",\N
"1820469889","1486205590","0",\N
"1820469889","1489785129","0",\N
"1820469889","1505455772","0",\N
"1820469889","1523208061","0",\N
"1820469889","1541434994","0",\N
"1820469889","1552837293","0",\N
"1820469889","1596858679","0",\N
"1820469889","1600061684","1",\N
"1820469889","1602839533","0",\N
"1820469889","1608776253","1",\N
"1820469889","1672891595","0",\N
"1820469889","1706499668","0",\N
"1820469889","1766332311","0",\N
"1820469889","1844282718","0",\N
"1820469889","1968513265","0",\N
"1820469889","1995876561","0",\N
"1820469889","2000740920","0",\N
"1820469889","2039985169","0",\N
"1820469889","2090798572","0",\N
"1820469889","2091776887","0",\N
"1820469889","2097366413","0",\N
"1820469889","2111353076","0",\N
"1820469889","2612793397","0",\N
"1820469889","31561947","0",\N
"1820469889","72396871","0",\N
"1820469889","96255555","0",\N
"1929233465","1987862681","0",\N
"1929233465","2017637575","0",\N
"1971922594","1541434994","0",\N
"1971922594","1543641760","0",\N
"1971922594","1584946103","1",\N
"1971922594","1594075998","1",\N
"1971922594","1855771754","0",\N
"1971922594","1929233465","1",\N
"1971922594","2013076094","0",\N
"1971922594","2019806829","1",\N
"1971922594","2023578426","0",\N
"1971922594","207242234","0",\N
"1971922594","2089241138","0",\N
"1971922594","2097805327","0",\N
"1971922594","2143326699","0",\N
"1971922594","2151384546","0",\N
"1971922594","8723063","0",\N
"1972320897","108782893","1",\N
"1972320897","145946779","0",\N
"1972320897","1525140360","0",\N
"1972320897","1546981056","0",\N
"1972320897","1547921609","0",\N
"1972320897","1559577056","0",\N
"1972320897","159710003","0",\N
"1972320897","163554444","0",\N
"1972320897","1968083012","0",\N
"1972320897","1984527041","0",\N
"1972320897","1992643862","0",\N
"1972320897","1993578868","0",\N
"1972320897","2017586706","0",\N
"1972320897","2021368709","0",\N
"1972320897","2049764332","0",\N
"1972320897","2064596811","0",\N
"1972320897","2092844221","0",\N
"1972320897","2106636526","0",\N
"1972320897","2110425399","0",\N
"1972320897","2113757735","0",\N
"1972320897","2131791649","0",\N
"1972320897","2145602571","0",\N
"1972320897","2170523074","0",\N
"1972320897","2912431422","0",\N
"1972320897","92717544","1",\N
"1976684752","100098737","0",\N
"1976684752","1480729609","0",\N
"1976684752","1513315908","0",\N
"1976684752","1592287058","0",\N
"1976684752","1748773533","0",\N
"1976684752","1978930043","0",\N
"1976684752","1994009914","1",\N
"1976684752","2006868050","0",\N
"1976684752","2008851176","0",\N
"1976684752","2010009487","0",\N
"1976684752","2010152469","0",\N
"1976684752","2013076094","0",\N
"1976684752","2034034435","0",\N
"1976684752","2036748304","0",\N
"1976684752","2062024564","0",\N
"1976684752","207242234","0",\N
"1976684752","2085946842","0",\N
"1976684752","2108911687","0",\N
"1976684752","2151384546","0",\N
"1976684752","2172307690","0",\N
"1976684752","2618723119","1",\N
"1976684752","3000611491","0",\N
"1976684752","33901518","0",\N
"1979420104","1524332517","0",\N
"1979420104","1537154171","0",\N
"1979420104","1541434994","0",\N
"1979420104","1548823727","0",\N
"1979420104","1589232796","0",\N
"1979420104","1763146822","0",\N
"1979420104","187817756","0",\N
"1979420104","1964636930","0",\N
"1979420104","1970571555","0",\N
"1979420104","1972307965","0",\N
"1979420104","1986318362","0",\N
"1979420104","2021567838","1",\N
"1979420104","2026433347","0",\N
"1979420104","203717583","0",\N
"1979420104","2046359621","0",\N
"1979420104","2049479585","1",\N
"1979420104","2063727779","0",\N
"1979420104","2065726785","0",\N
"1979420104","2070598037","0",\N
"1979420104","2072887188","1",\N
"1979420104","2094818741","0",\N
"1979420104","2108911687","0",\N
"1979420104","2120203610","0",\N
"1979420104","2145067417","0",\N
"1979420104","2155945137","0",\N
"1979420104","2156525231","0",\N
"1979420104","2161160885","0",\N
"1979420104","243832903","0",\N
"1979420104","2569549435","0",\N
"1979420104","47323645","1",\N
"1979420104","77745623","0",\N
"1979420104","83103435","0",\N
"1979420104","8723063","0",\N
"1990539155","101711680","0",\N
"1990539155","125332145","0",\N
"1990539155","1513250879","0",\N
"1990539155","1517427669","1",\N
"1990539155","1541434994","0",\N
"1990539155","1559402073","0",\N
"1990539155","156887923","0",\N
"1990539155","1572693407","0",\N
"1990539155","1584946103","1",\N
"1990539155","1594075998","1",\N
"1990539155","1595718705","0",\N
"1990539155","1595761884","0",\N
"1990539155","1846087057","0",\N
"1990539155","1929233465","1",\N
"1990539155","1966259305","0",\N
"1990539155","1987419104","0",\N
"1990539155","1997189447","0",\N
"1990539155","2016531106","0",\N
"1990539155","2016937339","0",\N
"1990539155","2018909714","0",\N
"1990539155","2019806829","1",\N
"1990539155","2025594092","0",\N
"1990539155","2036311242","0",\N
"1990539155","2072887188","1",\N
"1990539155","2084291619","0",\N
"1990539155","2091843160","0",\N
"1990539155","2094818741","0",\N
"1990539155","2221309524","0",\N
"1990539155","2297634763","0",\N
"1990539155","2515420469","0",\N
"1991003782","12344845","0",\N
"1991003782","1503740743","0",\N
"1991003782","1550098107","0",\N
"1991003782","1570280013","0",\N
"1991003782","1576264880","0",\N
"1991003782","1592683476","0",\N
"1991003782","18313247","0",\N
"1991003782","190348151","0",\N
"1991003782","191670929","0",\N
"1991003782","1977209971","0",\N
"1991003782","1984271780","0",\N
"1991003782","2017518635","0",\N
"1991003782","2044902313","0",\N
"1991003782","2046946959","0",\N
"1991003782","2047008023","0",\N
"1991003782","2063476219","0",\N
"1991003782","2081450921","0",\N
"1991003782","2089499361","0",\N
"1991003782","2111277910","0",\N
"1991003782","227222559","0",\N
"1991003782","25559139","0",\N
"1991003782","35848413","0",\N
"1991003782","48469851","0",\N
"1991003782","61477637","0",\N
"1991003782","76301990","0",\N
"1991003782","83875380","0",\N
"1994009914","100098737","0",\N
"1994009914","13419143","0",\N
"1994009914","1480729609","0",\N
"1994009914","1513315908","0",\N
"1994009914","1573806080","0",\N
"1994009914","1586338668","0",\N
"1994009914","1596011221","0",\N
"1994009914","16179259","0",\N
"1994009914","174743476","0",\N
"1994009914","19647984","0",\N
"1994009914","196653243","0",\N
"1994009914","1978930043","0",\N
"1994009914","1992905108","0",\N
"1994009914","2010009487","0",\N
"1994009914","2011087973","0",\N
"1994009914","2034034435","0",\N
"1994009914","2036748304","0",\N
"1994009914","204504531","0",\N
"1994009914","2067911767","0",\N
"1994009914","2085946842","0",\N
"1994009914","2094945667","0",\N
"1994009914","2100738443","0",\N
"1994009914","2108911687","0",\N
"1994009914","2280887738","0",\N
"1994009914","3000611491","0",\N
"1994009914","64118877","0",\N
"1994009914","68262387","0",\N
"2000220850","1541434994","0",\N
"2000220850","1585560305","1",\N
"2000220850","1589232796","0",\N
"2000220850","1763146822","0",\N
"2000220850","1986318362","0",\N
"2000220850","2021567838","1",\N
"2000220850","2029223741","1",\N
"2000220850","203717583","0",\N
"2000220850","2049479585","1",\N
"2000220850","2063727779","0",\N
"2000220850","2065726785","0",\N
"2000220850","2070598037","0",\N
"2000220850","2096907043","0",\N
"2000220850","2108911687","0",\N
"2000220850","2145067417","0",\N
"2000220850","2155945137","1",\N
"2000220850","2161160885","0",\N
"2000220850","243832903","0",\N
"2000220850","31561947","0",\N
"2000220850","47323645","1",\N
"2000220850","5642659","0",\N
"2000220850","77745623","0",\N
"2000220850","8723063","0",\N
"2002691587","1520016666","0",\N
"2002691587","1533210402","0",\N
"2002691587","1587166076","0",\N
"2002691587","1649645444","0",\N
"2002691587","168248273","0",\N
"2002691587","1963927380","0",\N
"2002691587","1967548205","0",\N
"2002691587","1968811027","0",\N
"2002691587","1981589974","0",\N
"2002691587","1984244946","0",\N
"2002691587","1984846967","0",\N
"2002691587","2017971446","0",\N
"2002691587","2019707320","0",\N
"2002691587","2031714065","0",\N
"2002691587","2043947910","0",\N
"2002691587","2045723688","0",\N
"2002691587","2066195341","0",\N
"2002691587","2075736230","1",\N
"2002691587","2076140697","0",\N
"2002691587","2077840726","0",\N
"2002691587","207911607","0",\N
"2002691587","2087698847","0",\N
"2002691587","2092333800","0",\N
"2002691587","2102011469","0",\N
"2002691587","2102444871","0",\N
"2002691587","2102664288","0",\N
"2002691587","2118393301","0",\N
"2002691587","2127225305","0",\N
"2002691587","2128628043","1",\N
"2002691587","2137946597","0",\N
"2002691587","2147877453","0",\N
"2002691587","2159765281","0",\N
"2002691587","2160763664","1",\N
"2002691587","2171122695","0",\N
"2002691587","2336693191","0",\N
"2002691587","2955158802","0",\N
"2007465156","1982953929","0",\N
"2007465156","1990898330","0",\N
"2007465156","1993921835","0",\N
"2007465156","2002691587","1",\N
"2007465156","2010624068","1",\N
"2007465156","2024445190","0",\N
"2007465156","2109233982","0",\N
"2007465156","2128628043","1",\N
"2007465156","2324430758","0",\N
"2007465156","2396326109","1",\N
"2007465156","2541797071","0",\N
"2008159174","1513445195","0",\N
"2008159174","1543641760","0",\N
"2008159174","1543822988","0",\N
"2008159174","1579433101","0",\N
"2008159174","1586338668","0",\N
"2008159174","1590937195","0",\N
"2008159174","1592287058","0",\N
"2008159174","1597033942","0",\N
"2008159174","1601555688","0",\N
"2008159174","1607723267","0",\N
"2008159174","196131355","0",\N
"2008159174","1994009914","1",\N
"2008159174","2010009487","0",\N
"2008159174","2010152469","0",\N
"2008159174","2013076094","0",\N
"2008159174","2034034435","0",\N
"2008159174","2075052434","0",\N
"2008159174","2078944436","0",\N
"2008159174","2085859074","0",\N
"2008159174","2085946842","0",\N
"2008159174","2089674328","0",\N
"2008159174","2105232714","0",\N
"2008159174","2108911687","0",\N
"2008159174","2111304450","0",\N
"2008159174","2130964526","0",\N
"2008159174","2132750992","0",\N
"2008159174","2184268586","0",\N
"2008159174","31561947","0",\N
"2010624068","1553801482","0",\N
"2010624068","1574879889","0",\N
"2010624068","1673079227","0",\N
"2010624068","1883270481","0",\N
"2010624068","1982328732","0",\N
"2010624068","1984846967","0",\N
"2010624068","2002691587","1",\N
"2010624068","2019707320","0",\N
"2010624068","2033392551","1",\N
"2010624068","2033526593","0",\N
"2010624068","2035662009","0",\N
"2010624068","2050349524","0",\N
"2010624068","2066195341","0",\N
"2010624068","2128628043","1",\N
"2010624068","2134092469","0",\N
"2010624068","2134429122","0",\N
"2010624068","2137480690","0",\N
"2010624068","2147877453","0",\N
"2010624068","2157922094","0",\N
"2010624068","2162126440","0",\N
"2015114614","100098737","0",\N
"2015114614","1543641760","0",\N
"2015114614","1586338668","0",\N
"2015114614","1590937195","0",\N
"2015114614","1592287058","0",\N
"2015114614","1601555688","0",\N
"2015114614","1607552714","0",\N
"2015114614","1607723267","0",\N
"2015114614","1747842575","0",\N
"2015114614","1994009914","1",\N
"2015114614","200016040","0",\N
"2015114614","2075052434","0",\N
"2015114614","2111304450","0",\N
"2015114614","2123396057","0",\N
"2015114614","2151384546","0",\N
"2015114614","2171987988","0",\N
"2015114614","22089940","0",\N
"2019806829","1480729609","0",\N
"2019806829","1584946103","1",\N
"2019806829","1594075998","1",\N
"2019806829","1929233465","1",\N
"2019806829","2097805327","0",\N
"2019806829","2108911687","0",\N
"2019806829","2123396057","0",\N
"2019806829","2151384546","0",\N
"2019806829","2153146517","0",\N
"2019806829","2790168364","0",\N
"2021567838","1513250879","0",\N
"2021567838","1541434994","0",\N
"2021567838","1579890282","0",\N
"2021567838","1586338668","0",\N
"2021567838","1594453148","0",\N
"2021567838","1964071625","0",\N
"2021567838","1968208097","0",\N
"2021567838","1972307965","0",\N
"2021567838","1977304153","0",\N
"2021567838","1988095917","0",\N
"2021567838","1997137927","0",\N
"2021567838","1997189447","0",\N
"2021567838","2049479585","1",\N
"2021567838","2057455870","0",\N
"2021567838","2063727779","0",\N
"2021567838","2085609918","0",\N
"2021567838","2096768533","0",\N
"2021567838","2110495481","0",\N
"2021567838","2123396057","0",\N
"2021567838","2161160885","0",\N
"2021567838","2440755","0",\N
"2021567838","2612400687","0",\N
"2021567838","2612793397","0",\N
"2021567838","31561947","0",\N
"2021567838","47323645","1",\N
"2021567838","60140338","0",\N
"2028544821","1579890282","0",\N
"2028544821","1979857620","0",\N
"2028544821","2049479585","1",\N
"2028544821","2078404830","0",\N
"2028544821","2158148130","0",\N
"2028544821","606283019","0",\N
"2029223741","1541434994","0",\N
"2029223741","1585560305","0",\N
"2029223741","1972307965","0",\N
"2029223741","1986318362","0",\N
"2029223741","2021567838","1",\N
"2029223741","2049479585","1",\N
"2029223741","2070598037","0",\N
"2029223741","2145067417","0",\N
"2029223741","2155945137","0",\N
"2029223741","31561947","0",\N
"2029223741","47323645","1",\N
"2029223741","77745623","0",\N
"2033392551","1549891226","0",\N
"2033392551","1971330554","0",\N
"2033392551","2002691587","1",\N
"2033392551","2075736230","1",\N
"2033392551","2169833809","0",\N
"2033392551","2592107698","1",\N
"2036475677","145946779","0",\N
"2036475677","1481852569","0",\N
"2036475677","1546981056","0",\N
"2036475677","1968083012","0",\N
"2036475677","1972320897","1",\N
"2036475677","1978972515","0",\N
"2036475677","2028931554","0",\N
"2036475677","2049764332","0",\N
"2036475677","2066210260","0",\N
"2036475677","2081966658","0",\N
"2036475677","2082188704","0",\N
"2036475677","2131791649","0",\N
"2036475677","2143326699","0",\N
"2036475677","2146293637","0",\N
"2036475677","219192435","0",\N
"2036475677","2294581346","0",\N
"2036475677","92717544","1",\N
"2037008576","100060371","0",\N
"2037008576","101711680","0",\N
"2037008576","125332145","0",\N
"2037008576","141627962","0",\N
"2037008576","1486205590","0",\N
"2037008576","1494051470","0",\N
"2037008576","1505455772","0",\N
"2037008576","1541434994","0",\N
"2037008576","1553364858","0",\N
"2037008576","1608776253","1",\N
"2037008576","1672891595","0",\N
"2037008576","1966259305","0",\N
"2037008576","1968513265","0",\N
"2037008576","1968516603","0",\N
"2037008576","1972376013","0",\N
"2037008576","1987419104","0",\N
"2037008576","1987862681","0",\N
"2037008576","2000740920","0",\N
"2037008576","2016531106","0",\N
"2037008576","2025594092","0",\N
"2037008576","2094818741","0",\N
"2037008576","2128770734","0",\N
"2037008576","2145067417","0",\N
"2037008576","2221309524","0",\N
"2037008576","31561947","0",\N
"2041360719","1505455772","0",\N
"2041360719","1608776253","1",\N
"2041360719","2094818741","0",\N
"2047575475","101711680","0",\N
"2047575475","1525228843","0",\N
"2047575475","1548823727","0",\N
"2047575475","1579890282","0",\N
"2047575475","1586121629","0",\N
"2047575475","1596887828","0",\N
"2047575475","1672891595","0",\N
"2047575475","1968513265","0",\N
"2047575475","1972307965","0",\N
"2047575475","1984715534","0",\N
"2047575475","2016531106","0",\N
"2047575475","2039491213","0",\N
"2047575475","2040019628","0",\N
"2047575475","2049479585","1",\N
"2047575475","2061565124","0",\N
"2047575475","2065726785","0",\N
"2047575475","2075610180","0",\N
"2047575475","2086424170","0",\N
"2047575475","2094818741","0",\N
"2047575475","2098678491","0",\N
"2047575475","2123396057","0",\N
"2047575475","2145067417","0",\N
"2047575475","2175082802","0",\N
"2047575475","47323645","1",\N
"2049479585","101711680","0",\N
"2049479585","125332145","0",\N
"2049479585","1496587441","0",\N
"2049479585","1548823727","0",\N
"2049479585","1598061859","0",\N
"2049479585","1672891595","0",\N
"2049479585","1968513265","0",\N
"2049479585","1970571555","0",\N
"2049479585","1972307965","0",\N
"2049479585","197801450","0",\N
"2049479585","1991718942","0",\N
"2049479585","2016531106","0",\N
"2049479585","2021567838","1",\N
"2049479585","203717583","0",\N
"2049479585","2063727779","0",\N
"2049479585","2065726785","0",\N
"2049479585","2098678491","0",\N
"2049479585","2123396057","0",\N
"2049479585","2145067417","0",\N
"2049479585","2161160885","0",\N
"2049479585","2250334391","0",\N
"2049479585","31561947","0",\N
"2049479585","47323645","1",\N
"2049479585","77745623","0",\N
"2069977755","1517100234","0",\N
"2069977755","1965206591","0",\N
"2069977755","2002691587","1",\N
"2069977755","2010624068","1",\N
"2069977755","2027763732","0",\N
"2069977755","2027817289","0",\N
"2069977755","2044348688","0",\N
"2069977755","2098624818","0",\N
"2069977755","2107697055","0",\N
"2069977755","2115269749","0",\N
"2069977755","2120724609","0",\N
"2069977755","2123812100","0",\N
"2069977755","2134113558","0",\N
"2069977755","2136833842","0",\N
"2069977755","2139825576","0",\N
"2069977755","2145657894","0",\N
"2069977755","2153029781","0",\N
"2069977755","2162284942","0",\N
"2069977755","2170708539","0",\N
"2069977755","2297853083","0",\N
"2069977755","2537467158","0",\N
"2069977755","2967057000","0",\N
"2072887188","100060371","0",\N
"2072887188","101711680","0",\N
"2072887188","125332145","0",\N
"2072887188","1513250879","0",\N
"2072887188","1541434994","0",\N
"2072887188","1584946103","1",\N
"2072887188","1929233465","1",\N
"2072887188","1965784613","0",\N
"2072887188","1966259305","0",\N
"2072887188","1984820433","0",\N
"2072887188","1987419104","0",\N
"2072887188","1993950655","0",\N
"2072887188","2016531106","0",\N
"2072887188","2016937339","0",\N
"2072887188","2019806829","1",\N
"2072887188","2025594092","0",\N
"2072887188","2059799630","0",\N
"2072887188","2065555531","0",\N
"2072887188","2094818741","0",\N
"2072887188","2106105719","0",\N
"2072887188","2148517439","0",\N
"2072887188","2221309524","0",\N
"2072887188","2297634763","0",\N
"2072887188","2515420469","0",\N
"2072887188","2612793397","0",\N
"2072887188","2744857873","1",\N
"2072887188","52074576","0",\N
"2072887188","82072683","0",\N
"2072887188","8723063","0",\N
"2075736230","1968811027","0",\N
"2075736230","1984846967","0",\N
"2075736230","2076140697","0",\N
"2080282276","123523327","0",\N
"2080282276","1483063212","0",\N
"2080282276","1483545420","0",\N
"2080282276","1514488489","0",\N
"2080282276","1521366829","0",\N
"2080282276","1523525039","0",\N
"2080282276","1528794170","0",\N
"2080282276","1546588682","0",\N
"2080282276","1549245411","0",\N
"2080282276","1564637213","0",\N
"2080282276","1573313194","0",\N
"2080282276","1588335385","0",\N
"2080282276","1591022264","0",\N
"2080282276","1790031272","0",\N
"2080282276","1973054120","0",\N
"2080282276","1973627522","0",\N
"2080282276","2008838944","0",\N
"2080282276","2029133311","0",\N
"2080282276","2049623372","0",\N
"2080282276","2099529102","0",\N
"2080282276","2116322260","0",\N
"2080282276","2128932399","0",\N
"2080282276","2128995870","0",\N
"2080282276","2130176451","0",\N
"2080282276","2133856853","0",\N
"2080282276","2136419300","0",\N
"2080282276","2139842876","0",\N
"2080282276","2141216727","0",\N
"2080282276","2148512774","0",\N
"2080282276","2150436715","0",\N
"2080282276","2163319710","0",\N
"2080282276","2611264224","0",\N
"2080282276","2913816119","0",\N
"2080282276","2948700248","0",\N
"2080282276","8455381","0",\N
"2112262250","1496712790","0",\N
"2112262250","1500638716","0",\N
"2112262250","1518533182","0",\N
"2112262250","1579850852","0",\N
"2112262250","1604301660","0",\N
"2112262250","1655226010","0",\N
"2112262250","1902405276","0",\N
"2112262250","1970026646","0",\N
"2112262250","2029414465","0",\N
"2112262250","2034711041","0",\N
"2112262250","2046336374","0",\N
"2112262250","2066856273","0",\N
"2112262250","2102222848","0",\N
"2112262250","2102443632","0",\N
"2112262250","2144642244","0",\N
"2112262250","2150277819","0",\N
"2112262250","2168753065","0",\N
"2112262250","2168775768","0",\N
"2112262250","2496223582","0",\N
"2112262250","2978757628","0",\N
"2128628043","1494940103","0",\N
"2128628043","1572116564","0",\N
"2128628043","1981589974","0",\N
"2128628043","2043947910","0",\N
"2128628043","2081007799","0",\N
"2128628043","2102664288","0",\N
"2128628043","2159765281","0",\N
"2128628043","2160763664","1",\N
"2128628043","2955158802","0",\N
"2150369236","100098737","0",\N
"2150369236","1480729609","0",\N
"2150369236","1525140360","0",\N
"2150369236","155273981","0",\N
"2150369236","1601555688","0",\N
"2150369236","1748773533","0",\N
"2150369236","183216870","0",\N
"2150369236","1976684752","1",\N
"2150369236","1994009914","1",\N
"2150369236","2013076094","0",\N
"2150369236","2023578426","0",\N
"2150369236","2034034435","0",\N
"2150369236","2036748304","0",\N
"2150369236","2067911767","0",\N
"2150369236","207242234","0",\N
"2150369236","2085946842","0",\N
"2150369236","2092753191","0",\N
"2150369236","2100648544","0",\N
"2150369236","2109507516","0",\N
"2150369236","2123396057","0",\N
"2150369236","2151384546","0",\N
"2150369236","2172307690","0",\N
"2150369236","22089940","0",\N
"2150369236","3000611491","0",\N
"2150369236","33901518","0",\N
"2150369236","68262387","0",\N
"2160009048","1522718855","0",\N
"2160009048","1555946950","0",\N
"2160009048","1593874741","0",\N
"2160009048","1673079227","0",\N
"2160009048","1982328732","0",\N
"2160009048","1985444680","0",\N
"2160009048","2002691587","1",\N
"2160009048","2033392551","1",\N
"2160009048","2033526593","0",\N
"2160009048","2050349524","0",\N
"2160009048","2074316761","0",\N
"2160009048","2134429122","0",\N
"2160009048","2157922094","0",\N
"2160009048","2158641382","0",\N
"2160009048","2161825580","0",\N
"2160009048","2162126440","0",\N
"2160763664","1599660162","0",\N
"2160763664","1981589974","0",\N
"2160763664","2081007799","0",\N
"2160763664","2139356751","0",\N
"2188063232","1556669894","0",\N
"2188063232","1574030932","0",\N
"2188063232","2002691587","1",\N
"2188063232","2007465156","1",\N
"2188063232","2082000355","0",\N
"2188063232","2115309705","0",\N
"2188063232","2117189826","0",\N
"2188063232","2139555094","0",\N
"2188063232","2171480813","0",\N
"2188063232","2594048750","1",\N
"2188063232","89508990","0",\N
"2284446998","1596067335","0",\N
"2284446998","1988095917","0",\N
"2284446998","2011306767","0",\N
"2288350671","116548181","0",\N
"2288350671","125104989","0",\N
"2288350671","137102142","0",\N
"2288350671","140117226","0",\N
"2288350671","1485061130","0",\N
"2288350671","1493240046","0",\N
"2288350671","1496587441","0",\N
"2288350671","1503179130","0",\N
"2288350671","1511668635","0",\N
"2288350671","1513250879","0",\N
"2288350671","1514298554","0",\N
"2288350671","1522278016","0",\N
"2288350671","1527862858","0",\N
"2288350671","1530441764","0",\N
"2288350671","1539291857","0",\N
"2288350671","1545142047","1",\N
"2288350671","1545359893","0",\N
"2288350671","1548823727","0",\N
"2288350671","1555946950","0",\N
"2288350671","1563855770","0",\N
"2288350671","1572015924","0",\N
"2288350671","1579890282","0",\N
"2288350671","1592287058","0",\N
"2288350671","1595761884","0",\N
"2288350671","1598061859","0",\N
"2288350671","1602090027","0",\N
"2288350671","1605300628","0",\N
"2288350671","1605876683","0",\N
"2288350671","1711497196","0",\N
"2288350671","1739798036","0",\N
"2288350671","1750970660","0",\N
"2288350671","1774324140","0",\N
"2288350671","178927935","0",\N
"2288350671","1814221162","0",\N
"2288350671","1966010233","0",\N
"2288350671","1968611033","0",\N
"2288350671","1970571555","0",\N
"2288350671","1971263261","0",\N
"2288350671","1972307965","0",\N
"2288350671","1979857620","0",\N
"2288350671","1982519605","0",\N
"2288350671","1986318362","0",\N
"2288350671","1988095917","0",\N
"2288350671","1988650943","0",\N
"2288350671","1998017916","0",\N
"2288350671","2002478775","0",\N
"2288350671","2003532777","0",\N
"2288350671","2006493317","0",\N
"2288350671","2012694101","0",\N
"2288350671","2012741612","0",\N
"2288350671","2021567838","1",\N
"2288350671","2029326070","0",\N
"2288350671","2037035101","0",\N
"2288350671","2043924273","0",\N
"2288350671","2047575475","1",\N
"2288350671","2049479585","1",\N
"2288350671","2053384008","0",\N
"2288350671","2060498389","0",\N
"2288350671","2061734130","0",\N
"2288350671","2063727779","0",\N
"2288350671","2065726785","0",\N
"2288350671","2078404830","0",\N
"2288350671","2079333278","0",\N
"2288350671","2082285894","0",\N
"2288350671","2085609918","0",\N
"2288350671","2086970510","0",\N
"2288350671","2090286414","0",\N
"2288350671","2091348864","0",\N
"2288350671","2096061310","0",\N
"2288350671","2099165995","0",\N
"2288350671","2103729840","0",\N
"2288350671","2119683217","0",\N
"2288350671","2121766240","0",\N
"2288350671","2123396057","0",\N
"2288350671","2132233302","0",\N
"2288350671","2139272205","0",\N
"2288350671","2142423074","0",\N
"2288350671","2148546044","0",\N
"2288350671","2158148130","0",\N
"2288350671","2171156560","0",\N
"2288350671","2467711735","0",\N
"2288350671","2501008710","0",\N
"2288350671","2570710533","0",\N
"2288350671","287517054","0",\N
"2288350671","2912435539","0",\N
"2288350671","2914735074","0",\N
"2288350671","2915021720","0",\N
"2288350671","2977904728","0",\N
"2288350671","3000135916","0",\N
"2288350671","3707317","0",\N
"2288350671","38226901","0",\N
"2288350671","38628683","0",\N
"2288350671","47323645","1",\N
"2288350671","606283019","0",\N
"2288350671","622285400","0",\N
"2288350671","65937437","0",\N
"2288350671","77745623","0",\N
"2288350671","77793587","0",\N
"2288350671","87898247","1",\N
"2288350671","9108982","0",\N
"2315834182","100098737","0",\N
"2315834182","1480729609","0",\N
"2315834182","1513315908","0",\N
"2315834182","1978006863","0",\N
"2315834182","1992282804","0",\N
"2315834182","1994009914","1",\N
"2315834182","2006868050","0",\N
"2315834182","2008851176","0",\N
"2315834182","2021083125","0",\N
"2315834182","2028543183","0",\N
"2315834182","2034034435","0",\N
"2315834182","2085946842","0",\N
"2315834182","2143326699","0",\N
"2315834182","2618723119","1",\N
"2315834182","3000611491","0",\N
"2315834182","33901518","0",\N
"2315834182","61477637","0",\N
"2315834182","76870825","0",\N
"2396326109","107792539","0",\N
"2396326109","118536976","0",\N
"2396326109","1531918044","0",\N
"2396326109","1555173530","0",\N
"2396326109","1589223644","0",\N
"2396326109","1673079227","0",\N
"2396326109","1973924171","0",\N
"2396326109","1979749124","0",\N
"2396326109","1982328732","0",\N
"2396326109","1984248430","0",\N
"2396326109","1985444680","0",\N
"2396326109","1992810975","0",\N
"2396326109","2002691587","1",\N
"2396326109","2002985857","0",\N
"2396326109","2022530540","0",\N
"2396326109","2054655669","0",\N
"2396326109","2134429122","0",\N
"2396326109","2158047578","0",\N
"2396326109","2162126440","0",\N
"2396326109","2162621793","0",\N
"2396326109","2294081347","0",\N
"2414833407","1574879889","0",\N
"2414833407","1582415544","0",\N
"2414833407","1895595380","0",\N
"2414833407","1990898330","0",\N
"2414833407","2002691587","1",\N
"2414833407","2010624068","1",\N
"2414833407","2013808870","1",\N
"2414833407","2016779899","0",\N
"2414833407","2024291102","0",\N
"2414833407","2024379951","0",\N
"2414833407","2035662009","0",\N
"2414833407","2038546500","0",\N
"2414833407","2067440805","0",\N
"2414833407","2068852010","0",\N
"2414833407","2091694893","0",\N
"2414833407","2099397123","0",\N
"2414833407","2102318902","0",\N
"2414833407","2120459757","0",\N
"2414833407","2134092469","0",\N
"2414833407","2138199375","0",\N
"2414833407","2149349589","0",\N
"2414833407","2153487332","0",\N
"2414833407","2157943826","0",\N
"2414833407","2162831261","0",\N
"2414833407","2396326109","1",\N
"257609047","1543641760","0",\N
"257609047","1579433101","0",\N
"257609047","2013076094","0",\N
"257609047","2165434002","0",\N
"2594047188","1494039273","0",\N
"2594047188","1532002274","0",\N
"2594047188","1574879889","0",\N
"2594047188","1719357820","0",\N
"2594047188","1979749124","0",\N
"2594047188","1982328732","0",\N
"2594047188","1985444680","0",\N
"2594047188","2002530879","0",\N
"2594047188","2002691587","1",\N
"2594047188","2002985857","0",\N
"2594047188","2010624068","1",\N
"2594047188","2019707320","0",\N
"2594047188","2024291102","0",\N
"2594047188","2035662009","0",\N
"2594047188","2067440805","0",\N
"2594047188","2091694893","0",\N
"2594047188","2110066339","0",\N
"2594047188","2128628043","1",\N
"2594047188","2162126440","0",\N
"2594048750","1553801482","0",\N
"2594048750","1574879889","0",\N
"2594048750","1966749442","0",\N
"2594048750","1987876495","0",\N
"2594048750","1995969371","0",\N
"2594048750","2002691587","1",\N
"2594048750","2010317027","0",\N
"2594048750","2094557771","0",\N
"2594048750","2122312470","0",\N
"2594977618","1541434994","0",\N
"2594977618","1544338185","0",\N
"2594977618","1559577056","0",\N
"2594977618","1573806080","0",\N
"2594977618","1597033942","0",\N
"2594977618","1872145581","0",\N
"2594977618","2011306767","0",\N
"2594977618","2013076094","0",\N
"2594977618","2017637575","0",\N
"2594977618","2089674328","0",\N
"2594977618","2098036931","0",\N
"2606610244","1498203978","0",\N
"2606610244","1518695183","0",\N
"2606610244","1545142047","1",\N
"2606610244","1555946950","0",\N
"2606610244","1605876683","0",\N
"2606610244","1814221162","0",\N
"2606610244","2000059300","0",\N
"2606610244","2007465156","1",\N
"2606610244","2019153550","0",\N
"2606610244","2026629052","0",\N
"2606610244","2060440626","0",\N
"2606610244","2060498389","0",\N
"2606610244","2078404830","0",\N
"2606610244","2086970510","0",\N
"2606610244","2099165995","0",\N
"2606610244","2103729840","0",\N
"2606610244","2117189826","0",\N
"2606610244","2342444439","0",\N
"2606610244","2555448203","0",\N
"2606610244","2767574877","0",\N
"2606610244","2883866057","0",\N
"2606610244","3000135916","0",\N
"2949624117","1522718855","0",\N
"2949624117","1593874741","0",\N
"2949624117","1673079227","0",\N
"2949624117","1982328732","0",\N
"2949624117","2002691587","1",\N
"2949624117","2033526593","0",\N
"2949624117","2050349524","0",\N
"2949624117","2074316761","0",\N
"2949624117","2134429122","0",\N
"2949624117","2157922094","0",\N
"2949624117","2158641382","0",\N
"2949624117","2162126440","0",\N
"2952416682","116355956","0",\N
"2952416682","1491642900","0",\N
"2952416682","1523013478","0",\N
"2952416682","1550435668","1",\N
"2952416682","1559402073","0",\N
"2952416682","1603383066","0",\N
"2952416682","168078688","0",\N
"2952416682","2009464583","0",\N
"2952416682","2052436826","0",\N
"2952416682","2087505639","0",\N
"2952416682","2093111544","1",\N
"2952416682","2169526198","1",\N
"2952416682","3832022","0",\N
"2952416682","56707503","0",\N
"305742777","35848413","0",\N
"345636978","1976684752","1",\N
"345636978","1994009914","1",\N
"345636978","2618723119","1",\N
"54981233","1541434994","0",\N
"54981233","1608776253","1",\N
"54981233","1972376013","0",\N
"54981233","1990539155","1",\N
"54981233","2019806829","1",\N
"54981233","2021567838","1",\N
"54981233","2072887188","1",\N
