"114560312","2081684918","5.5"
"2081684918","114560312","5.5"
"114560312","2095621940","4"
"2095621940","114560312","4"
"2081684918","2095621940","2.28333"
"2095621940","2081684918","2.28333"
"114560312","1596868233","1"
"1596868233","114560312","1"
"114560312","2144934666","0.25"
"2144934666","114560312","0.25"
"114560312","2736459664","0.25"
"2736459664","114560312","0.25"
"114560312","337688904","0.5"
"337688904","114560312","0.5"
"2095621940","2144934666","0.25"
"2144934666","2095621940","0.25"
"2095621940","2736459664","0.25"
"2736459664","2095621940","0.25"
"2095621940","337688904","1.7"
"337688904","2095621940","1.7"
"2144934666","2736459664","4.25"
"2736459664","2144934666","4.25"
"2144934666","337688904","0.25"
"337688904","2144934666","0.25"
"2736459664","337688904","0.25"
"337688904","2736459664","0.25"
"114560312","2138311613","0.5"
"2138311613","114560312","0.5"
"114560312","2724459664","0.5"
"2724459664","114560312","0.5"
"2138311613","2724459664","23.1429"
"2724459664","2138311613","23.1429"
"114560312","2164227199","1"
"2164227199","114560312","1"
"114560312","2096453387","0.25"
"2096453387","114560312","0.25"
"114560312","2949624507","0.25"
"2949624507","114560312","0.25"
"2095621940","2096453387","0.916667"
"2096453387","2095621940","0.916667"
"2095621940","2949624507","0.95"
"2949624507","2095621940","0.95"
"2096453387","2949624507","1.75"
"2949624507","2096453387","1.75"
"2096453387","337688904","1.75"
"337688904","2096453387","1.75"
"2949624507","337688904","14.3167"
"337688904","2949624507","14.3167"
"1484232066","1571020026","0.333333"
"1571020026","1484232066","0.333333"
"1484232066","1596868233","1.33333"
"1596868233","1484232066","1.33333"
"1484232066","2146506956","0.333333"
"2146506956","1484232066","0.333333"
"1571020026","1596868233","0.333333"
"1596868233","1571020026","0.333333"
"1571020026","2146506956","9.83333"
"2146506956","1571020026","9.83333"
"1596868233","2146506956","0.333333"
"2146506956","1596868233","0.333333"
"1524588094","2095621940","1.14286"
"2095621940","1524588094","1.14286"
"1524588094","1987940107","0.142857"
"1987940107","1524588094","0.142857"
"1524588094","2119410461","0.142857"
"2119410461","1524588094","0.142857"
"1524588094","2138311613","0.142857"
"2138311613","1524588094","0.142857"
"1524588094","2172046899","0.142857"
"2172046899","1524588094","0.142857"
"1524588094","2724459664","0.142857"
"2724459664","1524588094","0.142857"
"1524588094","833124999","0.142857"
"833124999","1524588094","0.142857"
"1987940107","2095621940","0.309524"
"2095621940","1987940107","0.309524"
"1987940107","2119410461","6.84286"
"2119410461","1987940107","6.84286"
"1987940107","2138311613","0.142857"
"2138311613","1987940107","0.142857"
"1987940107","2172046899","0.142857"
"2172046899","1987940107","0.142857"
"1987940107","2724459664","0.142857"
"2724459664","1987940107","0.142857"
"1987940107","833124999","2.64286"
"833124999","1987940107","2.64286"
"2095621940","2119410461","1.50952"
"2119410461","2095621940","1.50952"
"2095621940","2138311613","1.14286"
"2138311613","2095621940","1.14286"
"2095621940","2172046899","0.142857"
"2172046899","2095621940","0.142857"
"2095621940","2724459664","0.392857"
"2724459664","2095621940","0.392857"
"2095621940","833124999","0.309524"
"833124999","2095621940","0.309524"
"2119410461","2138311613","0.142857"
"2138311613","2119410461","0.142857"
"2119410461","2172046899","0.142857"
"2172046899","2119410461","0.142857"
"2119410461","2724459664","0.142857"
"2724459664","2119410461","0.142857"
"2119410461","833124999","3.64286"
"833124999","2119410461","3.64286"
"2138311613","2172046899","0.142857"
"2172046899","2138311613","0.142857"
"2138311613","833124999","0.142857"
"833124999","2138311613","0.142857"
"2172046899","2724459664","0.142857"
"2724459664","2172046899","0.142857"
"2172046899","833124999","0.142857"
"833124999","2172046899","0.142857"
"2724459664","833124999","0.142857"
"833124999","2724459664","0.142857"
"1533660737","2794460355","1.25"
"2794460355","1533660737","1.25"
"1533660737","1596868233","0.75"
"1596868233","1533660737","0.75"
"1533660737","2095621940","0.25"
"2095621940","1533660737","0.25"
"1533660737","2184456102","2.25"
"2184456102","1533660737","2.25"
"1596868233","2095621940","1.66667"
"2095621940","1596868233","1.66667"
"1596868233","2184456102","0.25"
"2184456102","1596868233","0.25"
"1596868233","2794460355","0.25"
"2794460355","1596868233","0.25"
"2095621940","2184456102","0.25"
"2184456102","2095621940","0.25"
"2095621940","2794460355","0.25"
"2794460355","2095621940","0.25"
"2184456102","2794460355","0.25"
"2794460355","2184456102","0.25"
"1533660737","2144934666","1"
"2144934666","1533660737","1"
"1533660737","2108572844","0.5"
"2108572844","1533660737","0.5"
"1596868233","2108572844","0.75"
"2108572844","1596868233","0.75"
"1533758202","2172046899","1"
"2172046899","1533758202","1"
"1533758202","2095621940","1"
"2095621940","1533758202","1"
"1533758202","2157747946","1"
"2157747946","1533758202","1"
"1571020026","64268597","13"
"64268597","1571020026","13"
"2146506956","64268597","11"
"64268597","2146506956","11"
"1571020026","2095621940","0.5"
"2095621940","1571020026","0.5"
"2095621940","2146506956","0.5"
"2146506956","2095621940","0.5"
"1575323022","1987940107","0.2"
"1987940107","1575323022","0.2"
"1575323022","2041741187","0.2"
"2041741187","1575323022","0.2"
"1575323022","2119410461","0.2"
"2119410461","1575323022","0.2"
"1575323022","2949624507","0.2"
"2949624507","1575323022","0.2"
"1575323022","337688904","0.2"
"337688904","1575323022","0.2"
"1987940107","2041741187","0.366667"
"2041741187","1987940107","0.366667"
"1987940107","2949624507","0.866667"
"2949624507","1987940107","0.866667"
"1987940107","337688904","0.866667"
"337688904","1987940107","0.866667"
"2041741187","2119410461","0.7"
"2119410461","2041741187","0.7"
"2041741187","2949624507","0.533333"
"2949624507","2041741187","0.533333"
"2041741187","337688904","0.533333"
"337688904","2041741187","0.533333"
"2119410461","2949624507","1.73333"
"2949624507","2119410461","1.73333"
"2119410461","337688904","2.23333"
"337688904","2119410461","2.23333"
"1596868233","2041741187","2.25"
"2041741187","1596868233","2.25"
"1596868233","2157519573","0.25"
"2157519573","1596868233","0.25"
"2041741187","2095621940","6.08333"
"2095621940","2041741187","6.08333"
"2041741187","2108572844","0.25"
"2108572844","2041741187","0.25"
"2041741187","2157519573","0.25"
"2157519573","2041741187","0.25"
"2095621940","2108572844","0.25"
"2108572844","2095621940","0.25"
"2095621940","2157519573","0.25"
"2157519573","2095621940","0.25"
"2108572844","2157519573","4.25"
"2157519573","2108572844","4.25"
"1596868233","337688904","2.16667"
"337688904","1596868233","2.16667"
"1596868233","2096453387","0.166667"
"2096453387","1596868233","0.166667"
"1596868233","2099064293","0.166667"
"2099064293","1596868233","0.166667"
"1596868233","2119410461","0.166667"
"2119410461","1596868233","0.166667"
"1596868233","2949624507","0.166667"
"2949624507","1596868233","0.166667"
"2095621940","2099064293","0.166667"
"2099064293","2095621940","0.166667"
"2096453387","2099064293","0.166667"
"2099064293","2096453387","0.166667"
"2096453387","2119410461","5.16667"
"2119410461","2096453387","5.16667"
"2099064293","2119410461","0.166667"
"2119410461","2099064293","0.166667"
"2099064293","2949624507","0.166667"
"2949624507","2099064293","0.166667"
"2099064293","337688904","0.166667"
"337688904","2099064293","0.166667"
"1982350890","2951938755","21"
"2951938755","1982350890","21"
"1987940107","2096453387","5.33333"
"2096453387","1987940107","5.33333"
"1987940107","2141599838","3"
"2141599838","1987940107","3"
"2096453387","2141599838","5.5"
"2141599838","2096453387","5.5"
"2141599838","2949624507","0.866667"
"2949624507","2141599838","0.866667"
"2141599838","337688904","0.866667"
"337688904","2141599838","0.866667"
"2041741187","2096453387","0.5"
"2096453387","2041741187","0.5"
"2041741187","2141599838","0.166667"
"2141599838","2041741187","0.166667"
"2041741187","833124999","0.166667"
"833124999","2041741187","0.166667"
"2095621940","2141599838","0.366667"
"2141599838","2095621940","0.366667"
"2096453387","833124999","0.5"
"833124999","2096453387","0.5"
"2119410461","2141599838","0.866667"
"2141599838","2119410461","0.866667"
"2141599838","833124999","1.16667"
"833124999","2141599838","1.16667"
"2041741187","2081684918","2"
"2081684918","2041741187","2"
"2041741187","2099064293","1"
"2099064293","2041741187","1"
"2041741187","2138311613","0.5"
"2138311613","2041741187","0.5"
"2041741187","2724459664","0.5"
"2724459664","2041741187","0.5"
"2081684918","2166240201","1.25"
"2166240201","2081684918","1.25"
"2081684918","2119410461","0.2"
"2119410461","2081684918","0.2"
"2081684918","2141599838","0.2"
"2141599838","2081684918","0.2"
"2081684918","2949624507","0.2"
"2949624507","2081684918","0.2"
"2081684918","337688904","0.2"
"337688904","2081684918","0.2"
"2081684918","2096602764","0.333333"
"2096602764","2081684918","0.333333"
"2081684918","2137114813","0.583333"
"2137114813","2081684918","0.583333"
"2095621940","2096602764","0.333333"
"2096602764","2095621940","0.333333"
"2095621940","2137114813","0.583333"
"2137114813","2095621940","0.583333"
"2096602764","2137114813","0.333333"
"2137114813","2096602764","0.333333"
"2081684918","2724459664","0.25"
"2724459664","2081684918","0.25"
"2095621940","2166240201","0.25"
"2166240201","2095621940","0.25"
"2137114813","2166240201","0.25"
"2166240201","2137114813","0.25"
"2137114813","2724459664","0.25"
"2724459664","2137114813","0.25"
"2166240201","2724459664","0.25"
"2724459664","2166240201","0.25"
"2095621940","64268597","1"
"64268597","2095621940","1"
"2096602764","2144934666","0.5"
"2144934666","2096602764","0.5"
"2096602764","2157519573","0.5"
"2157519573","2096602764","0.5"
"2144934666","2157519573","1"
"2157519573","2144934666","1"
"2108572844","2144934666","1.5"
"2144934666","2108572844","1.5"
"2108572844","2137114813","0.5"
"2137114813","2108572844","0.5"
"2137114813","2157519573","0.5"
"2157519573","2137114813","0.5"
"2137114813","2144934666","1"
"2144934666","2137114813","1"
"2137201712","2949583171","34"
"2949583171","2137201712","34"
"2141599838","2146506956","1"
"2146506956","2141599838","1"
