"1167383870","2902767540","1.70587"
"2902767540","1167383870","1.70587"
"1167383870","3011727649","0.643369"
"3011727649","1167383870","0.643369"
"2902767540","3011727649","1.51004"
"3011727649","2902767540","1.51004"
"1167383870","2009682549","0.5625"
"2009682549","1167383870","0.5625"
"1167383870","2051402533","0.594758"
"2051402533","1167383870","0.594758"
"2009682549","2051402533","1.01849"
"2051402533","2009682549","1.01849"
"1167383870","1828918404","2.94444"
"1828918404","1167383870","2.94444"
"1167383870","2020679445","0.333333"
"2020679445","1167383870","0.333333"
"1167383870","2342877758","0.333333"
"2342877758","1167383870","0.333333"
"1828918404","2020679445","1.08333"
"2020679445","1828918404","1.08333"
"1828918404","2342877758","3.28333"
"2342877758","1828918404","3.28333"
"2020679445","2342877758","2.58333"
"2342877758","2020679445","2.58333"
"1167383870","1513050866","0.143369"
"1513050866","1167383870","0.143369"
"1167383870","2479490066","0.611111"
"2479490066","1167383870","0.611111"
"1167383870","2599238723","0.111111"
"2599238723","1167383870","0.111111"
"1167383870","2655124276","0.205869"
"2655124276","1167383870","0.205869"
"1167383870","2768392855","0.111111"
"2768392855","1167383870","0.111111"
"1167383870","2949074561","1.11111"
"2949074561","1167383870","1.11111"
"1513050866","1828918404","2.06111"
"1828918404","1513050866","2.06111"
"1513050866","2479490066","0.311111"
"2479490066","1513050866","0.311111"
"1513050866","2599238723","0.111111"
"2599238723","1513050866","0.111111"
"1513050866","2655124276","0.143369"
"2655124276","1513050866","0.143369"
"1513050866","2768392855","0.111111"
"2768392855","1513050866","0.111111"
"1513050866","2902767540","0.593369"
"2902767540","1513050866","0.593369"
"1513050866","2949074561","1.11111"
"2949074561","1513050866","1.11111"
"1513050866","3011727649","0.343369"
"3011727649","1513050866","0.343369"
"1828918404","2479490066","3.31111"
"2479490066","1828918404","3.31111"
"1828918404","2599238723","0.111111"
"2599238723","1828918404","0.111111"
"1828918404","2655124276","0.111111"
"2655124276","1828918404","0.111111"
"1828918404","2768392855","0.111111"
"2768392855","1828918404","0.111111"
"1828918404","2902767540","0.561111"
"2902767540","1828918404","0.561111"
"1828918404","2949074561","0.111111"
"2949074561","1828918404","0.111111"
"1828918404","3011727649","0.311111"
"3011727649","1828918404","0.311111"
"2479490066","2599238723","0.111111"
"2599238723","2479490066","0.111111"
"2479490066","2655124276","0.111111"
"2655124276","2479490066","0.111111"
"2479490066","2768392855","0.111111"
"2768392855","2479490066","0.111111"
"2479490066","2902767540","0.311111"
"2902767540","2479490066","0.311111"
"2479490066","2949074561","0.111111"
"2949074561","2479490066","0.111111"
"2479490066","3011727649","0.311111"
"3011727649","2479490066","0.311111"
"2599238723","2655124276","0.111111"
"2655124276","2599238723","0.111111"
"2599238723","2768392855","0.111111"
"2768392855","2599238723","0.111111"
"2599238723","2902767540","1.11111"
"2902767540","2599238723","1.11111"
"2599238723","2949074561","1.11111"
"2949074561","2599238723","1.11111"
"2599238723","3011727649","0.111111"
"3011727649","2599238723","0.111111"
"2655124276","2768392855","0.111111"
"2768392855","2655124276","0.111111"
"2655124276","2902767540","0.205869"
"2902767540","2655124276","0.205869"
"2655124276","2949074561","0.111111"
"2949074561","2655124276","0.111111"
"2655124276","3011727649","0.143369"
"3011727649","2655124276","0.143369"
"2768392855","2902767540","2.11111"
"2902767540","2768392855","2.11111"
"2768392855","2949074561","0.611111"
"2949074561","2768392855","0.611111"
"2768392855","3011727649","3.11111"
"3011727649","2768392855","3.11111"
"2902767540","2949074561","3.61111"
"2949074561","2902767540","3.61111"
"2949074561","3011727649","1.11111"
"3011727649","2949074561","1.11111"
"1167383870","1592044350","0.0625"
"1592044350","1167383870","0.0625"
"1167383870","2010712005","0.0947581"
"2010712005","1167383870","0.0947581"
"1167383870","2011072533","0.0947581"
"2011072533","1167383870","0.0947581"
"1167383870","2032646517","0.0947581"
"2032646517","1167383870","0.0947581"
"1167383870","2037077419","0.0625"
"2037077419","1167383870","0.0625"
"1167383870","2042562418","0.0947581"
"2042562418","1167383870","0.0947581"
"1167383870","2059848388","0.0947581"
"2059848388","1167383870","0.0947581"
"1167383870","2095519076","0.0947581"
"2095519076","1167383870","0.0947581"
"1167383870","2134010515","0.0947581"
"2134010515","1167383870","0.0947581"
"1167383870","2232209423","0.0947581"
"2232209423","1167383870","0.0947581"
"1167383870","2603290394","0.0625"
"2603290394","1167383870","0.0625"
"1167383870","2902243749","0.0625"
"2902243749","1167383870","0.0625"
"1592044350","2009682549","0.940711"
"2009682549","1592044350","0.940711"
"1592044350","2010712005","0.5625"
"2010712005","1592044350","0.5625"
"1592044350","2011072533","7.03119"
"2011072533","1592044350","7.03119"
"1592044350","2032646517","3.63238"
"2032646517","1592044350","3.63238"
"1592044350","2037077419","0.0625"
"2037077419","1592044350","0.0625"
"1592044350","2042562418","0.5625"
"2042562418","1592044350","0.5625"
"1592044350","2051402533","1.19904"
"2051402533","1592044350","1.19904"
"1592044350","2059848388","0.2625"
"2059848388","1592044350","0.2625"
"1592044350","2095519076","2.49785"
"2095519076","1592044350","2.49785"
"1592044350","2134010515","0.353409"
"2134010515","1592044350","0.353409"
"1592044350","2232209423","1.45619"
"2232209423","1592044350","1.45619"
"1592044350","2603290394","1.33119"
"2603290394","1592044350","1.33119"
"1592044350","2655124276","0.0625"
"2655124276","1592044350","0.0625"
"1592044350","2902243749","0.607377"
"2902243749","1592044350","0.607377"
"1592044350","2902767540","0.316468"
"2902767540","1592044350","0.316468"
"2009682549","2010712005","0.145833"
"2010712005","2009682549","0.145833"
"2009682549","2011072533","0.547854"
"2011072533","2009682549","0.547854"
"2009682549","2032646517","0.518488"
"2032646517","2009682549","0.518488"
"2009682549","2037077419","0.145833"
"2037077419","2009682549","0.145833"
"2009682549","2042562418","0.145833"
"2042562418","2009682549","0.145833"
"2009682549","2059848388","0.845833"
"2059848388","2009682549","0.845833"
"2009682549","2095519076","0.542298"
"2095519076","2009682549","0.542298"
"2009682549","2134010515","0.26452"
"2134010515","2009682549","0.26452"
"2009682549","2232209423","0.375631"
"2232209423","2009682549","0.375631"
"2009682549","2603290394","0.26452"
"2603290394","2009682549","0.26452"
"2009682549","2655124276","0.173611"
"2655124276","2009682549","0.173611"
"2009682549","2902243749","4.13516"
"2902243749","2009682549","4.13516"
"2009682549","2902767540","0.316468"
"2902767540","2009682549","0.316468"
"2010712005","2011072533","0.178091"
"2011072533","2010712005","0.178091"
"2010712005","2032646517","0.0947581"
"2032646517","2010712005","0.0947581"
"2010712005","2037077419","0.28869"
"2037077419","2010712005","0.28869"
"2010712005","2042562418","5.67809"
"2042562418","2010712005","5.67809"
"2010712005","2051402533","0.0947581"
"2051402533","2010712005","0.0947581"
"2010712005","2059848388","0.178091"
"2059848388","2010712005","0.178091"
"2010712005","2095519076","0.0947581"
"2095519076","2010712005","0.0947581"
"2010712005","2134010515","0.0947581"
"2134010515","2010712005","0.0947581"
"2010712005","2232209423","0.237615"
"2232209423","2010712005","0.237615"
"2010712005","2603290394","0.0625"
"2603290394","2010712005","0.0625"
"2010712005","2655124276","0.0947581"
"2655124276","2010712005","0.0947581"
"2010712005","2902243749","0.28869"
"2902243749","2010712005","0.28869"
"2010712005","2902767540","0.0947581"
"2902767540","2010712005","0.0947581"
"2011072533","2032646517","0.696778"
"2032646517","2011072533","0.696778"
"2011072533","2037077419","0.145833"
"2037077419","2011072533","0.145833"
"2011072533","2042562418","0.178091"
"2042562418","2011072533","0.178091"
"2011072533","2051402533","0.963445"
"2051402533","2011072533","0.963445"
"2011072533","2059848388","0.378091"
"2059848388","2011072533","0.378091"
"2011072533","2095519076","0.996778"
"2095519076","2011072533","0.996778"
"2011072533","2134010515","0.385667"
"2134010515","2011072533","0.385667"
"2011072533","2232209423","0.496778"
"2232209423","2011072533","0.496778"
"2011072533","2603290394","0.46452"
"2603290394","2011072533","0.46452"
"2011072533","2655124276","0.0947581"
"2655124276","2011072533","0.0947581"
"2011072533","2902243749","0.547854"
"2902243749","2011072533","0.547854"
"2011072533","2902767540","0.372536"
"2902767540","2011072533","0.372536"
"2032646517","2037077419","0.0625"
"2037077419","2032646517","0.0625"
"2032646517","2042562418","0.0947581"
"2042562418","2032646517","0.0947581"
"2032646517","2051402533","1.67575"
"2051402533","2032646517","1.67575"
"2032646517","2059848388","0.0947581"
"2059848388","2032646517","0.0947581"
"2032646517","2095519076","3.80789"
"2095519076","2032646517","3.80789"
"2032646517","2134010515","0.496778"
"2134010515","2032646517","0.496778"
"2032646517","2232209423","1.59956"
"2232209423","2032646517","1.59956"
"2032646517","2603290394","0.997854"
"2603290394","2032646517","0.997854"
"2032646517","2655124276","0.205869"
"2655124276","2032646517","0.205869"
"2032646517","2902243749","0.518488"
"2902243749","2032646517","0.518488"
"2032646517","2902767540","2.34873"
"2902767540","2032646517","2.34873"
"2037077419","2042562418","0.145833"
"2042562418","2037077419","0.145833"
"2037077419","2051402533","0.0625"
"2051402533","2037077419","0.0625"
"2037077419","2059848388","0.145833"
"2059848388","2037077419","0.145833"
"2037077419","2095519076","0.0625"
"2095519076","2037077419","0.0625"
"2037077419","2134010515","0.0625"
"2134010515","2037077419","0.0625"
"2037077419","2232209423","0.205357"
"2232209423","2037077419","0.205357"
"2037077419","2603290394","0.0625"
"2603290394","2037077419","0.0625"
"2037077419","2655124276","0.0625"
"2655124276","2037077419","0.0625"
"2037077419","2902243749","0.28869"
"2902243749","2037077419","0.28869"
"2037077419","2902767540","0.0625"
"2902767540","2037077419","0.0625"
"2042562418","2051402533","0.0947581"
"2051402533","2042562418","0.0947581"
"2042562418","2059848388","0.178091"
"2059848388","2042562418","0.178091"
"2042562418","2095519076","0.0947581"
"2095519076","2042562418","0.0947581"
"2042562418","2134010515","0.0947581"
"2134010515","2042562418","0.0947581"
"2042562418","2232209423","0.0947581"
"2232209423","2042562418","0.0947581"
"2042562418","2603290394","0.0625"
"2603290394","2042562418","0.0625"
"2042562418","2655124276","0.0947581"
"2655124276","2042562418","0.0947581"
"2042562418","2902243749","0.145833"
"2902243749","2042562418","0.145833"
"2042562418","2902767540","0.0947581"
"2902767540","2042562418","0.0947581"
"2051402533","2059848388","0.0947581"
"2059848388","2051402533","0.0947581"
"2051402533","2095519076","0.407889"
"2095519076","2051402533","0.407889"
"2051402533","2134010515","0.296778"
"2134010515","2051402533","0.296778"
"2051402533","2232209423","0.532889"
"2232209423","2051402533","0.532889"
"2051402533","2603290394","0.26452"
"2603290394","2051402533","0.26452"
"2051402533","2655124276","0.205869"
"2655124276","2051402533","0.205869"
"2051402533","2902243749","0.518488"
"2902243749","2051402533","0.518488"
"2051402533","2902767540","0.348726"
"2902767540","2051402533","0.348726"
"2059848388","2095519076","0.428091"
"2095519076","2059848388","0.428091"
"2059848388","2134010515","0.0947581"
"2134010515","2059848388","0.0947581"
"2059848388","2232209423","0.0947581"
"2232209423","2059848388","0.0947581"
"2059848388","2603290394","0.0625"
"2603290394","2059848388","0.0625"
"2059848388","2655124276","0.0947581"
"2655124276","2059848388","0.0947581"
"2059848388","2902243749","0.5125"
"2902243749","2059848388","0.5125"
"2059848388","2902767540","0.0947581"
"2902767540","2059848388","0.0947581"
"2095519076","2134010515","1.29678"
"2134010515","2095519076","1.29678"
"2095519076","2232209423","4.47456"
"2232209423","2095519076","4.47456"
"2095519076","2603290394","1.83119"
"2603290394","2095519076","1.83119"
"2095519076","2655124276","1.20587"
"2655124276","2095519076","1.20587"
"2095519076","2902243749","0.542298"
"2902243749","2095519076","0.542298"
"2095519076","2902767540","0.705869"
"2902767540","2095519076","0.705869"
"2134010515","2232209423","0.296778"
"2232209423","2134010515","0.296778"
"2134010515","2603290394","0.153409"
"2603290394","2134010515","0.153409"
"2134010515","2655124276","0.205869"
"2655124276","2134010515","0.205869"
"2134010515","2902243749","0.26452"
"2902243749","2134010515","0.26452"
"2134010515","2902767540","0.0947581"
"2902767540","2134010515","0.0947581"
"2232209423","2603290394","0.66452"
"2603290394","2232209423","0.66452"
"2232209423","2655124276","0.205869"
"2655124276","2232209423","0.205869"
"2232209423","2902243749","0.518488"
"2902243749","2232209423","0.518488"
"2232209423","2902767540","0.205869"
"2902767540","2232209423","0.205869"
"2603290394","2655124276","0.0625"
"2655124276","2603290394","0.0625"
"2603290394","2902243749","0.26452"
"2902243749","2603290394","0.26452"
"2603290394","2902767540","0.673611"
"2902767540","2603290394","0.673611"
"2655124276","2902243749","0.173611"
"2902243749","2655124276","0.173611"
"2902243749","2902767540","0.316468"
"2902767540","2902243749","0.316468"
"1167383870","1553509686","0.0322581"
"1553509686","1167383870","0.0322581"
"1167383870","1970584927","0.0322581"
"1970584927","1167383870","0.0322581"
"1167383870","1975652117","0.0322581"
"1975652117","1167383870","0.0322581"
"1167383870","1975864252","0.0322581"
"1975864252","1167383870","0.0322581"
"1167383870","1977955327","0.0322581"
"1977955327","1167383870","0.0322581"
"1167383870","1991638061","0.0322581"
"1991638061","1167383870","0.0322581"
"1167383870","1993549680","0.0322581"
"1993549680","1167383870","0.0322581"
"1167383870","200882292","0.0322581"
"200882292","1167383870","0.0322581"
"1167383870","2014814286","0.0322581"
"2014814286","1167383870","0.0322581"
"1167383870","2020615548","0.0322581"
"2020615548","1167383870","0.0322581"
"1167383870","2022054913","0.0322581"
"2022054913","1167383870","0.0322581"
"1167383870","2030715551","0.0322581"
"2030715551","1167383870","0.0322581"
"1167383870","2031993859","0.0322581"
"2031993859","1167383870","0.0322581"
"1167383870","2068628594","0.0322581"
"2068628594","1167383870","0.0322581"
"1167383870","2120051256","0.0322581"
"2120051256","1167383870","0.0322581"
"1167383870","2898895018","0.0322581"
"2898895018","1167383870","0.0322581"
"1167383870","2899131782","0.0322581"
"2899131782","1167383870","0.0322581"
"1167383870","73263655","0.0322581"
"73263655","1167383870","0.0322581"
"1513050866","1553509686","0.0322581"
"1553509686","1513050866","0.0322581"
"1513050866","1970584927","0.0322581"
"1970584927","1513050866","0.0322581"
"1513050866","1975652117","0.0322581"
"1975652117","1513050866","0.0322581"
"1513050866","1975864252","0.0322581"
"1975864252","1513050866","0.0322581"
"1513050866","1977955327","0.0322581"
"1977955327","1513050866","0.0322581"
"1513050866","1991638061","0.0322581"
"1991638061","1513050866","0.0322581"
"1513050866","1993549680","0.0322581"
"1993549680","1513050866","0.0322581"
"1513050866","200882292","0.0322581"
"200882292","1513050866","0.0322581"
"1513050866","2010712005","0.0322581"
"2010712005","1513050866","0.0322581"
"1513050866","2011072533","0.0322581"
"2011072533","1513050866","0.0322581"
"1513050866","2014814286","0.0322581"
"2014814286","1513050866","0.0322581"
"1513050866","2020615548","0.0322581"
"2020615548","1513050866","0.0322581"
"1513050866","2022054913","0.0322581"
"2022054913","1513050866","0.0322581"
"1513050866","2030715551","0.0322581"
"2030715551","1513050866","0.0322581"
"1513050866","2031993859","0.0322581"
"2031993859","1513050866","0.0322581"
"1513050866","2032646517","0.0322581"
"2032646517","1513050866","0.0322581"
"1513050866","2042562418","0.0322581"
"2042562418","1513050866","0.0322581"
"1513050866","2051402533","0.0322581"
"2051402533","1513050866","0.0322581"
"1513050866","2059848388","0.0322581"
"2059848388","1513050866","0.0322581"
"1513050866","2068628594","0.0322581"
"2068628594","1513050866","0.0322581"
"1513050866","2095519076","0.0322581"
"2095519076","1513050866","0.0322581"
"1513050866","2120051256","0.0322581"
"2120051256","1513050866","0.0322581"
"1513050866","2134010515","0.0322581"
"2134010515","1513050866","0.0322581"
"1513050866","2232209423","0.0322581"
"2232209423","1513050866","0.0322581"
"1513050866","2898895018","0.0322581"
"2898895018","1513050866","0.0322581"
"1513050866","2899131782","0.0322581"
"2899131782","1513050866","0.0322581"
"1513050866","73263655","0.0322581"
"73263655","1513050866","0.0322581"
"1553509686","1970584927","3.40845"
"1970584927","1553509686","3.40845"
"1553509686","1975652117","0.0322581"
"1975652117","1553509686","0.0322581"
"1553509686","1975864252","0.0322581"
"1975864252","1553509686","0.0322581"
"1553509686","1977955327","0.0322581"
"1977955327","1553509686","0.0322581"
"1553509686","1991638061","2.85845"
"1991638061","1553509686","2.85845"
"1553509686","1993549680","0.198925"
"1993549680","1553509686","0.198925"
"1553509686","200882292","0.0322581"
"200882292","1553509686","0.0322581"
"1553509686","2010712005","0.0322581"
"2010712005","1553509686","0.0322581"
"1553509686","2011072533","0.0322581"
"2011072533","1553509686","0.0322581"
"1553509686","2014814286","0.175115"
"2014814286","1553509686","0.175115"
"1553509686","2020615548","2.65845"
"2020615548","1553509686","2.65845"
"1553509686","2022054913","0.0322581"
"2022054913","1553509686","0.0322581"
"1553509686","2030715551","2.85845"
"2030715551","1553509686","2.85845"
"1553509686","2031993859","0.0322581"
"2031993859","1553509686","0.0322581"
"1553509686","2032646517","0.0322581"
"2032646517","1553509686","0.0322581"
"1553509686","2042562418","0.0322581"
"2042562418","1553509686","0.0322581"
"1553509686","2051402533","0.0322581"
"2051402533","1553509686","0.0322581"
"1553509686","2059848388","0.0322581"
"2059848388","1553509686","0.0322581"
"1553509686","2068628594","3.77512"
"2068628594","1553509686","3.77512"
"1553509686","2095519076","0.0322581"
"2095519076","1553509686","0.0322581"
"1553509686","2120051256","0.0322581"
"2120051256","1553509686","0.0322581"
"1553509686","2134010515","0.0322581"
"2134010515","1553509686","0.0322581"
"1553509686","2232209423","0.0322581"
"2232209423","1553509686","0.0322581"
"1553509686","2655124276","0.0322581"
"2655124276","1553509686","0.0322581"
"1553509686","2898895018","0.0322581"
"2898895018","1553509686","0.0322581"
"1553509686","2899131782","0.0322581"
"2899131782","1553509686","0.0322581"
"1553509686","2902767540","0.0322581"
"2902767540","1553509686","0.0322581"
"1553509686","3011727649","0.0322581"
"3011727649","1553509686","0.0322581"
"1553509686","73263655","0.0322581"
"73263655","1553509686","0.0322581"
"1970584927","1975652117","0.0322581"
"1975652117","1970584927","0.0322581"
"1970584927","1975864252","0.0322581"
"1975864252","1970584927","0.0322581"
"1970584927","1977955327","0.0322581"
"1977955327","1970584927","0.0322581"
"1970584927","1991638061","5.92512"
"1991638061","1970584927","5.92512"
"1970584927","1993549680","0.198925"
"1993549680","1970584927","0.198925"
"1970584927","200882292","0.0322581"
"200882292","1970584927","0.0322581"
"1970584927","2010712005","0.0322581"
"2010712005","1970584927","0.0322581"
"1970584927","2011072533","0.0322581"
"2011072533","1970584927","0.0322581"
"1970584927","2014814286","0.175115"
"2014814286","1970584927","0.175115"
"1970584927","2020615548","5.39178"
"2020615548","1970584927","5.39178"
"1970584927","2022054913","0.0322581"
"2022054913","1970584927","0.0322581"
"1970584927","2030715551","6.42512"
"2030715551","1970584927","6.42512"
"1970584927","2031993859","0.0322581"
"2031993859","1970584927","0.0322581"
"1970584927","2032646517","0.0322581"
"2032646517","1970584927","0.0322581"
"1970584927","2042562418","0.0322581"
"2042562418","1970584927","0.0322581"
"1970584927","2051402533","0.0322581"
"2051402533","1970584927","0.0322581"
"1970584927","2059848388","0.0322581"
"2059848388","1970584927","0.0322581"
"1970584927","2068628594","7.75845"
"2068628594","1970584927","7.75845"
"1970584927","2095519076","0.0322581"
"2095519076","1970584927","0.0322581"
"1970584927","2120051256","0.0322581"
"2120051256","1970584927","0.0322581"
"1970584927","2134010515","0.0322581"
"2134010515","1970584927","0.0322581"
"1970584927","2232209423","0.0322581"
"2232209423","1970584927","0.0322581"
"1970584927","2655124276","0.0322581"
"2655124276","1970584927","0.0322581"
"1970584927","2898895018","0.0322581"
"2898895018","1970584927","0.0322581"
"1970584927","2899131782","0.0322581"
"2899131782","1970584927","0.0322581"
"1970584927","2902767540","0.0322581"
"2902767540","1970584927","0.0322581"
"1970584927","3011727649","0.0322581"
"3011727649","1970584927","0.0322581"
"1970584927","73263655","0.0322581"
"73263655","1970584927","0.0322581"
"1975652117","1975864252","0.0322581"
"1975864252","1975652117","0.0322581"
"1975652117","1977955327","0.157258"
"1977955327","1975652117","0.157258"
"1975652117","1991638061","0.0322581"
"1991638061","1975652117","0.0322581"
"1975652117","1993549680","0.0322581"
"1993549680","1975652117","0.0322581"
"1975652117","200882292","0.0322581"
"200882292","1975652117","0.0322581"
"1975652117","2010712005","0.0322581"
"2010712005","1975652117","0.0322581"
"1975652117","2011072533","0.0322581"
"2011072533","1975652117","0.0322581"
"1975652117","2014814286","0.0322581"
"2014814286","1975652117","0.0322581"
"1975652117","2020615548","0.0322581"
"2020615548","1975652117","0.0322581"
"1975652117","2022054913","0.0322581"
"2022054913","1975652117","0.0322581"
"1975652117","2030715551","0.0322581"
"2030715551","1975652117","0.0322581"
"1975652117","2031993859","1.15726"
"2031993859","1975652117","1.15726"
"1975652117","2032646517","0.157258"
"2032646517","1975652117","0.157258"
"1975652117","2042562418","0.0322581"
"2042562418","1975652117","0.0322581"
"1975652117","2051402533","0.157258"
"2051402533","1975652117","0.157258"
"1975652117","2059848388","0.0322581"
"2059848388","1975652117","0.0322581"
"1975652117","2068628594","0.0322581"
"2068628594","1975652117","0.0322581"
"1975652117","2095519076","0.0322581"
"2095519076","1975652117","0.0322581"
"1975652117","2120051256","0.0322581"
"2120051256","1975652117","0.0322581"
"1975652117","2134010515","0.0322581"
"2134010515","1975652117","0.0322581"
"1975652117","2232209423","0.157258"
"2232209423","1975652117","0.157258"
"1975652117","2655124276","0.0322581"
"2655124276","1975652117","0.0322581"
"1975652117","2898895018","0.0322581"
"2898895018","1975652117","0.0322581"
"1975652117","2899131782","0.0322581"
"2899131782","1975652117","0.0322581"
"1975652117","2902767540","0.0322581"
"2902767540","1975652117","0.0322581"
"1975652117","3011727649","0.0322581"
"3011727649","1975652117","0.0322581"
"1975652117","73263655","0.157258"
"73263655","1975652117","0.157258"
"1975864252","1977955327","3.86559"
"1977955327","1975864252","3.86559"
"1975864252","1991638061","0.0322581"
"1991638061","1975864252","0.0322581"
"1975864252","1993549680","0.198925"
"1993549680","1975864252","0.198925"
"1975864252","200882292","0.448925"
"200882292","1975864252","0.448925"
"1975864252","2010712005","0.115591"
"2010712005","1975864252","0.115591"
"1975864252","2011072533","0.115591"
"2011072533","1975864252","0.115591"
"1975864252","2014814286","0.0322581"
"2014814286","1975864252","0.0322581"
"1975864252","2020615548","0.0322581"
"2020615548","1975864252","0.0322581"
"1975864252","2022054913","0.0322581"
"2022054913","1975864252","0.0322581"
"1975864252","2030715551","0.0322581"
"2030715551","1975864252","0.0322581"
"1975864252","2031993859","0.115591"
"2031993859","1975864252","0.115591"
"1975864252","2032646517","0.365591"
"2032646517","1975864252","0.365591"
"1975864252","2042562418","0.115591"
"2042562418","1975864252","0.115591"
"1975864252","2051402533","0.0322581"
"2051402533","1975864252","0.0322581"
"1975864252","2059848388","0.782258"
"2059848388","1975864252","0.782258"
"1975864252","2068628594","0.0322581"
"2068628594","1975864252","0.0322581"
"1975864252","2095519076","0.365591"
"2095519076","1975864252","0.365591"
"1975864252","2120051256","0.282258"
"2120051256","1975864252","0.282258"
"1975864252","2134010515","0.365591"
"2134010515","1975864252","0.365591"
"1975864252","2232209423","0.0322581"
"2232209423","1975864252","0.0322581"
"1975864252","2655124276","0.0322581"
"2655124276","1975864252","0.0322581"
"1975864252","2898895018","0.0322581"
"2898895018","1975864252","0.0322581"
"1975864252","2899131782","0.0322581"
"2899131782","1975864252","0.0322581"
"1975864252","2902767540","0.0322581"
"2902767540","1975864252","0.0322581"
"1975864252","3011727649","0.0322581"
"3011727649","1975864252","0.0322581"
"1975864252","73263655","3.86559"
"73263655","1975864252","3.86559"
"1977955327","1991638061","0.0322581"
"1991638061","1977955327","0.0322581"
"1977955327","1993549680","0.198925"
"1993549680","1977955327","0.198925"
"1977955327","200882292","0.258449"
"200882292","1977955327","0.258449"
"1977955327","2010712005","1.25845"
"2010712005","1977955327","1.25845"
"1977955327","2011072533","0.315591"
"2011072533","1977955327","0.315591"
"1977955327","2014814286","0.0322581"
"2014814286","1977955327","0.0322581"
"1977955327","2020615548","0.0322581"
"2020615548","1977955327","0.0322581"
"1977955327","2022054913","0.0322581"
"2022054913","1977955327","0.0322581"
"1977955327","2030715551","0.0322581"
"2030715551","1977955327","0.0322581"
"1977955327","2031993859","0.383449"
"2031993859","1977955327","0.383449"
"1977955327","2032646517","0.690591"
"2032646517","1977955327","0.690591"
"1977955327","2042562418","0.115591"
"2042562418","1977955327","0.115591"
"1977955327","2051402533","0.157258"
"2051402533","1977955327","0.157258"
"1977955327","2059848388","0.448925"
"2059848388","1977955327","0.448925"
"1977955327","2068628594","0.0322581"
"2068628594","1977955327","0.0322581"
"1977955327","2095519076","0.365591"
"2095519076","1977955327","0.365591"
"1977955327","2120051256","0.282258"
"2120051256","1977955327","0.282258"
"1977955327","2134010515","0.565591"
"2134010515","1977955327","0.565591"
"1977955327","2232209423","0.300115"
"2232209423","1977955327","0.300115"
"1977955327","2655124276","0.0322581"
"2655124276","1977955327","0.0322581"
"1977955327","2898895018","0.0322581"
"2898895018","1977955327","0.0322581"
"1977955327","2899131782","0.0322581"
"2899131782","1977955327","0.0322581"
"1977955327","2902767540","0.0322581"
"2902767540","1977955327","0.0322581"
"1977955327","3011727649","0.0322581"
"3011727649","1977955327","0.0322581"
"1977955327","73263655","4.63345"
"73263655","1977955327","4.63345"
"1991638061","1993549680","0.0322581"
"1993549680","1991638061","0.0322581"
"1991638061","200882292","0.0322581"
"200882292","1991638061","0.0322581"
"1991638061","2010712005","0.0322581"
"2010712005","1991638061","0.0322581"
"1991638061","2011072533","0.0322581"
"2011072533","1991638061","0.0322581"
"1991638061","2014814286","0.175115"
"2014814286","1991638061","0.175115"
"1991638061","2020615548","4.50845"
"2020615548","1991638061","4.50845"
"1991638061","2022054913","0.0322581"
"2022054913","1991638061","0.0322581"
"1991638061","2030715551","14.5418"
"2030715551","1991638061","14.5418"
"1991638061","2031993859","0.0322581"
"2031993859","1991638061","0.0322581"
"1991638061","2032646517","0.0322581"
"2032646517","1991638061","0.0322581"
"1991638061","2042562418","0.0322581"
"2042562418","1991638061","0.0322581"
"1991638061","2051402533","0.0322581"
"2051402533","1991638061","0.0322581"
"1991638061","2059848388","0.0322581"
"2059848388","1991638061","0.0322581"
"1991638061","2068628594","3.79178"
"2068628594","1991638061","3.79178"
"1991638061","2095519076","0.0322581"
"2095519076","1991638061","0.0322581"
"1991638061","2120051256","0.0322581"
"2120051256","1991638061","0.0322581"
"1991638061","2134010515","0.0322581"
"2134010515","1991638061","0.0322581"
"1991638061","2232209423","0.0322581"
"2232209423","1991638061","0.0322581"
"1991638061","2655124276","0.0322581"
"2655124276","1991638061","0.0322581"
"1991638061","2898895018","0.0322581"
"2898895018","1991638061","0.0322581"
"1991638061","2899131782","0.0322581"
"2899131782","1991638061","0.0322581"
"1991638061","2902767540","0.0322581"
"2902767540","1991638061","0.0322581"
"1991638061","3011727649","0.0322581"
"3011727649","1991638061","0.0322581"
"1991638061","73263655","0.0322581"
"73263655","1991638061","0.0322581"
"1993549680","200882292","0.0322581"
"200882292","1993549680","0.0322581"
"1993549680","2010712005","0.0322581"
"2010712005","1993549680","0.0322581"
"1993549680","2011072533","0.0322581"
"2011072533","1993549680","0.0322581"
"1993549680","2014814286","0.365591"
"2014814286","1993549680","0.365591"
"1993549680","2020615548","0.198925"
"2020615548","1993549680","0.198925"
"1993549680","2022054913","0.0322581"
"2022054913","1993549680","0.0322581"
"1993549680","2030715551","0.198925"
"2030715551","1993549680","0.198925"
"1993549680","2031993859","0.0322581"
"2031993859","1993549680","0.0322581"
"1993549680","2032646517","0.365591"
"2032646517","1993549680","0.365591"
"1993549680","2042562418","0.0322581"
"2042562418","1993549680","0.0322581"
"1993549680","2051402533","0.0322581"
"2051402533","1993549680","0.0322581"
"1993549680","2059848388","6.19892"
"2059848388","1993549680","6.19892"
"1993549680","2068628594","0.198925"
"2068628594","1993549680","0.198925"
"1993549680","2095519076","0.198925"
"2095519076","1993549680","0.198925"
"1993549680","2120051256","0.365591"
"2120051256","1993549680","0.365591"
"1993549680","2134010515","0.0322581"
"2134010515","1993549680","0.0322581"
"1993549680","2232209423","0.0322581"
"2232209423","1993549680","0.0322581"
"1993549680","2655124276","0.0322581"
"2655124276","1993549680","0.0322581"
"1993549680","2898895018","0.0322581"
"2898895018","1993549680","0.0322581"
"1993549680","2899131782","0.0322581"
"2899131782","1993549680","0.0322581"
"1993549680","2902767540","0.0322581"
"2902767540","1993549680","0.0322581"
"1993549680","3011727649","0.0322581"
"3011727649","1993549680","0.0322581"
"1993549680","73263655","0.198925"
"73263655","1993549680","0.198925"
"200882292","2010712005","0.258449"
"2010712005","200882292","0.258449"
"200882292","2011072533","0.115591"
"2011072533","200882292","0.115591"
"200882292","2014814286","0.0322581"
"2014814286","200882292","0.0322581"
"200882292","2020615548","0.0322581"
"2020615548","200882292","0.0322581"
"200882292","2022054913","0.0322581"
"2022054913","200882292","0.0322581"
"200882292","2030715551","0.0322581"
"2030715551","200882292","0.0322581"
"200882292","2031993859","0.258449"
"2031993859","200882292","0.258449"
"200882292","2032646517","0.0322581"
"2032646517","200882292","0.0322581"
"200882292","2042562418","0.115591"
"2042562418","200882292","0.115591"
"200882292","2051402533","0.0322581"
"2051402533","200882292","0.0322581"
"200882292","2059848388","0.448925"
"2059848388","200882292","0.448925"
"200882292","2068628594","0.0322581"
"2068628594","200882292","0.0322581"
"200882292","2095519076","0.0322581"
"2095519076","200882292","0.0322581"
"200882292","2120051256","0.0322581"
"2120051256","200882292","0.0322581"
"200882292","2134010515","0.0322581"
"2134010515","200882292","0.0322581"
"200882292","2232209423","0.175115"
"2232209423","200882292","0.175115"
"200882292","2655124276","0.0322581"
"2655124276","200882292","0.0322581"
"200882292","2898895018","0.0322581"
"2898895018","200882292","0.0322581"
"200882292","2899131782","0.0322581"
"2899131782","200882292","0.0322581"
"200882292","2902767540","0.0322581"
"2902767540","200882292","0.0322581"
"200882292","3011727649","0.0322581"
"3011727649","200882292","0.0322581"
"200882292","73263655","0.258449"
"73263655","200882292","0.258449"
"2010712005","2014814286","0.0322581"
"2014814286","2010712005","0.0322581"
"2010712005","2020615548","0.0322581"
"2020615548","2010712005","0.0322581"
"2010712005","2022054913","0.0322581"
"2022054913","2010712005","0.0322581"
"2010712005","2030715551","0.0322581"
"2030715551","2010712005","0.0322581"
"2010712005","2031993859","0.258449"
"2031993859","2010712005","0.258449"
"2010712005","2068628594","0.0322581"
"2068628594","2010712005","0.0322581"
"2010712005","2120051256","0.0322581"
"2120051256","2010712005","0.0322581"
"2010712005","2898895018","0.0322581"
"2898895018","2010712005","0.0322581"
"2010712005","2899131782","0.0322581"
"2899131782","2010712005","0.0322581"
"2010712005","3011727649","0.0322581"
"3011727649","2010712005","0.0322581"
"2010712005","73263655","0.258449"
"73263655","2010712005","0.258449"
"2011072533","2014814286","0.0322581"
"2014814286","2011072533","0.0322581"
"2011072533","2020615548","0.0322581"
"2020615548","2011072533","0.0322581"
"2011072533","2022054913","0.0322581"
"2022054913","2011072533","0.0322581"
"2011072533","2030715551","0.0322581"
"2030715551","2011072533","0.0322581"
"2011072533","2031993859","0.282258"
"2031993859","2011072533","0.282258"
"2011072533","2068628594","0.0322581"
"2068628594","2011072533","0.0322581"
"2011072533","2120051256","0.0322581"
"2120051256","2011072533","0.0322581"
"2011072533","2898895018","0.0322581"
"2898895018","2011072533","0.0322581"
"2011072533","2899131782","0.0322581"
"2899131782","2011072533","0.0322581"
"2011072533","3011727649","0.198925"
"3011727649","2011072533","0.198925"
"2011072533","73263655","0.2065"
"73263655","2011072533","0.2065"
"2014814286","2020615548","0.175115"
"2020615548","2014814286","0.175115"
"2014814286","2022054913","0.0322581"
"2022054913","2014814286","0.0322581"
"2014814286","2030715551","0.175115"
"2030715551","2014814286","0.175115"
"2014814286","2031993859","0.0322581"
"2031993859","2014814286","0.0322581"
"2014814286","2032646517","0.365591"
"2032646517","2014814286","0.365591"
"2014814286","2042562418","0.0322581"
"2042562418","2014814286","0.0322581"
"2014814286","2051402533","0.0322581"
"2051402533","2014814286","0.0322581"
"2014814286","2059848388","0.0322581"
"2059848388","2014814286","0.0322581"
"2014814286","2068628594","0.175115"
"2068628594","2014814286","0.175115"
"2014814286","2095519076","0.0322581"
"2095519076","2014814286","0.0322581"
"2014814286","2120051256","0.365591"
"2120051256","2014814286","0.365591"
"2014814286","2134010515","0.0322581"
"2134010515","2014814286","0.0322581"
"2014814286","2232209423","0.0322581"
"2232209423","2014814286","0.0322581"
"2014814286","2655124276","0.0322581"
"2655124276","2014814286","0.0322581"
"2014814286","2898895018","0.0322581"
"2898895018","2014814286","0.0322581"
"2014814286","2899131782","0.0322581"
"2899131782","2014814286","0.0322581"
"2014814286","2902767540","0.0322581"
"2902767540","2014814286","0.0322581"
"2014814286","3011727649","0.0322581"
"3011727649","2014814286","0.0322581"
"2014814286","73263655","0.0322581"
"73263655","2014814286","0.0322581"
"2020615548","2022054913","0.0322581"
"2022054913","2020615548","0.0322581"
"2020615548","2030715551","12.0084"
"2030715551","2020615548","12.0084"
"2020615548","2031993859","0.0322581"
"2031993859","2020615548","0.0322581"
"2020615548","2032646517","0.0322581"
"2032646517","2020615548","0.0322581"
"2020615548","2042562418","0.0322581"
"2042562418","2020615548","0.0322581"
"2020615548","2051402533","0.0322581"
"2051402533","2020615548","0.0322581"
"2020615548","2059848388","0.0322581"
"2059848388","2020615548","0.0322581"
"2020615548","2068628594","3.42512"
"2068628594","2020615548","3.42512"
"2020615548","2095519076","0.0322581"
"2095519076","2020615548","0.0322581"
"2020615548","2120051256","0.0322581"
"2120051256","2020615548","0.0322581"
"2020615548","2134010515","0.0322581"
"2134010515","2020615548","0.0322581"
"2020615548","2232209423","0.0322581"
"2232209423","2020615548","0.0322581"
"2020615548","2655124276","0.0322581"
"2655124276","2020615548","0.0322581"
"2020615548","2898895018","0.0322581"
"2898895018","2020615548","0.0322581"
"2020615548","2899131782","0.0322581"
"2899131782","2020615548","0.0322581"
"2020615548","2902767540","0.0322581"
"2902767540","2020615548","0.0322581"
"2020615548","3011727649","0.0322581"
"3011727649","2020615548","0.0322581"
"2020615548","73263655","0.0322581"
"73263655","2020615548","0.0322581"
"2022054913","2030715551","0.0322581"
"2030715551","2022054913","0.0322581"
"2022054913","2031993859","0.0322581"
"2031993859","2022054913","0.0322581"
"2022054913","2032646517","0.0322581"
"2032646517","2022054913","0.0322581"
"2022054913","2042562418","0.0322581"
"2042562418","2022054913","0.0322581"
"2022054913","2051402533","0.0322581"
"2051402533","2022054913","0.0322581"
"2022054913","2059848388","0.0322581"
"2059848388","2022054913","0.0322581"
"2022054913","2068628594","0.0322581"
"2068628594","2022054913","0.0322581"
"2022054913","2095519076","0.365591"
"2095519076","2022054913","0.365591"
"2022054913","2120051256","0.365591"
"2120051256","2022054913","0.365591"
"2022054913","2134010515","0.0322581"
"2134010515","2022054913","0.0322581"
"2022054913","2232209423","0.0322581"
"2232209423","2022054913","0.0322581"
"2022054913","2655124276","0.0322581"
"2655124276","2022054913","0.0322581"
"2022054913","2898895018","0.0322581"
"2898895018","2022054913","0.0322581"
"2022054913","2899131782","0.0322581"
"2899131782","2022054913","0.0322581"
"2022054913","2902767540","0.0322581"
"2902767540","2022054913","0.0322581"
"2022054913","3011727649","0.0322581"
"3011727649","2022054913","0.0322581"
"2022054913","73263655","0.0322581"
"73263655","2022054913","0.0322581"
"2030715551","2031993859","0.0322581"
"2031993859","2030715551","0.0322581"
"2030715551","2032646517","0.0322581"
"2032646517","2030715551","0.0322581"
"2030715551","2042562418","0.0322581"
"2042562418","2030715551","0.0322581"
"2030715551","2051402533","0.0322581"
"2051402533","2030715551","0.0322581"
"2030715551","2059848388","0.0322581"
"2059848388","2030715551","0.0322581"
"2030715551","2068628594","3.45845"
"2068628594","2030715551","3.45845"
"2030715551","2095519076","0.0322581"
"2095519076","2030715551","0.0322581"
"2030715551","2120051256","0.0322581"
"2120051256","2030715551","0.0322581"
"2030715551","2134010515","0.0322581"
"2134010515","2030715551","0.0322581"
"2030715551","2232209423","0.0322581"
"2232209423","2030715551","0.0322581"
"2030715551","2655124276","0.0322581"
"2655124276","2030715551","0.0322581"
"2030715551","2898895018","0.0322581"
"2898895018","2030715551","0.0322581"
"2030715551","2899131782","0.0322581"
"2899131782","2030715551","0.0322581"
"2030715551","2902767540","0.0322581"
"2902767540","2030715551","0.0322581"
"2030715551","3011727649","0.0322581"
"3011727649","2030715551","0.0322581"
"2030715551","73263655","0.0322581"
"73263655","2030715551","0.0322581"
"2031993859","2032646517","0.268369"
"2032646517","2031993859","0.268369"
"2031993859","2042562418","0.115591"
"2042562418","2031993859","0.115591"
"2031993859","2051402533","0.268369"
"2051402533","2031993859","0.268369"
"2031993859","2059848388","0.115591"
"2059848388","2031993859","0.115591"
"2031993859","2068628594","0.0322581"
"2068628594","2031993859","0.0322581"
"2031993859","2095519076","0.143369"
"2095519076","2031993859","0.143369"
"2031993859","2120051256","0.0322581"
"2120051256","2031993859","0.0322581"
"2031993859","2134010515","0.893369"
"2134010515","2031993859","0.893369"
"2031993859","2232209423","0.411226"
"2232209423","2031993859","0.411226"
"2031993859","2655124276","0.143369"
"2655124276","2031993859","0.143369"
"2031993859","2898895018","0.0322581"
"2898895018","2031993859","0.0322581"
"2031993859","2899131782","0.0322581"
"2899131782","2031993859","0.0322581"
"2031993859","2902767540","0.198925"
"2902767540","2031993859","0.198925"
"2031993859","3011727649","0.198925"
"3011727649","2031993859","0.198925"
"2031993859","73263655","0.383449"
"73263655","2031993859","0.383449"
"2032646517","2068628594","0.0322581"
"2068628594","2032646517","0.0322581"
"2032646517","2120051256","1.36559"
"2120051256","2032646517","1.36559"
"2032646517","2898895018","0.0322581"
"2898895018","2032646517","0.0322581"
"2032646517","2899131782","0.0322581"
"2899131782","2032646517","0.0322581"
"2032646517","3011727649","0.0322581"
"3011727649","2032646517","0.0322581"
"2032646517","73263655","0.5815"
"73263655","2032646517","0.5815"
"2042562418","2068628594","0.0322581"
"2068628594","2042562418","0.0322581"
"2042562418","2120051256","0.0322581"
"2120051256","2042562418","0.0322581"
"2042562418","2898895018","0.0322581"
"2898895018","2042562418","0.0322581"
"2042562418","2899131782","0.0322581"
"2899131782","2042562418","0.0322581"
"2042562418","3011727649","0.0322581"
"3011727649","2042562418","0.0322581"
"2042562418","73263655","0.115591"
"73263655","2042562418","0.115591"
"2051402533","2068628594","0.0322581"
"2068628594","2051402533","0.0322581"
"2051402533","2120051256","0.0322581"
"2120051256","2051402533","0.0322581"
"2051402533","2898895018","0.0322581"
"2898895018","2051402533","0.0322581"
"2051402533","2899131782","0.0322581"
"2899131782","2051402533","0.0322581"
"2051402533","3011727649","0.0322581"
"3011727649","2051402533","0.0322581"
"2051402533","73263655","0.248167"
"73263655","2051402533","0.248167"
"2059848388","2068628594","0.0322581"
"2068628594","2059848388","0.0322581"
"2059848388","2120051256","0.0322581"
"2120051256","2059848388","0.0322581"
"2059848388","2898895018","0.0322581"
"2898895018","2059848388","0.0322581"
"2059848388","2899131782","0.0322581"
"2899131782","2059848388","0.0322581"
"2059848388","3011727649","0.0322581"
"3011727649","2059848388","0.0322581"
"2059848388","73263655","0.448925"
"73263655","2059848388","0.448925"
"2068628594","2095519076","0.0322581"
"2095519076","2068628594","0.0322581"
"2068628594","2120051256","0.0322581"
"2120051256","2068628594","0.0322581"
"2068628594","2134010515","0.0322581"
"2134010515","2068628594","0.0322581"
"2068628594","2232209423","0.0322581"
"2232209423","2068628594","0.0322581"
"2068628594","2655124276","0.0322581"
"2655124276","2068628594","0.0322581"
"2068628594","2898895018","0.0322581"
"2898895018","2068628594","0.0322581"
"2068628594","2899131782","0.0322581"
"2899131782","2068628594","0.0322581"
"2068628594","2902767540","0.0322581"
"2902767540","2068628594","0.0322581"
"2068628594","3011727649","0.0322581"
"3011727649","2068628594","0.0322581"
"2068628594","73263655","0.0322581"
"73263655","2068628594","0.0322581"
"2095519076","2120051256","1.86559"
"2120051256","2095519076","1.86559"
"2095519076","2898895018","0.0322581"
"2898895018","2095519076","0.0322581"
"2095519076","2899131782","0.0322581"
"2899131782","2095519076","0.0322581"
"2095519076","3011727649","0.0322581"
"3011727649","2095519076","0.0322581"
"2095519076","73263655","0.456501"
"73263655","2095519076","0.456501"
"2120051256","2134010515","0.0322581"
"2134010515","2120051256","0.0322581"
"2120051256","2232209423","0.0322581"
"2232209423","2120051256","0.0322581"
"2120051256","2655124276","0.0322581"
"2655124276","2120051256","0.0322581"
"2120051256","2898895018","0.0322581"
"2898895018","2120051256","0.0322581"
"2120051256","2899131782","0.0322581"
"2899131782","2120051256","0.0322581"
"2120051256","2902767540","0.0322581"
"2902767540","2120051256","0.0322581"
"2120051256","3011727649","0.0322581"
"3011727649","2120051256","0.0322581"
"2120051256","73263655","0.282258"
"73263655","2120051256","0.282258"
"2134010515","2898895018","1.03226"
"2898895018","2134010515","1.03226"
"2134010515","2899131782","0.0322581"
"2899131782","2134010515","0.0322581"
"2134010515","3011727649","0.0322581"
"3011727649","2134010515","0.0322581"
"2134010515","73263655","0.456501"
"73263655","2134010515","0.456501"
"2232209423","2898895018","0.0322581"
"2898895018","2232209423","0.0322581"
"2232209423","2899131782","0.0322581"
"2899131782","2232209423","0.0322581"
"2232209423","3011727649","0.0322581"
"3011727649","2232209423","0.0322581"
"2232209423","73263655","1.39102"
"73263655","2232209423","1.39102"
"2655124276","2898895018","0.0322581"
"2898895018","2655124276","0.0322581"
"2655124276","2899131782","9.03226"
"2899131782","2655124276","9.03226"
"2655124276","73263655","0.0322581"
"73263655","2655124276","0.0322581"
"2898895018","2899131782","2.03226"
"2899131782","2898895018","2.03226"
"2898895018","2902767540","0.0322581"
"2902767540","2898895018","0.0322581"
"2898895018","3011727649","0.0322581"
"3011727649","2898895018","0.0322581"
"2898895018","73263655","0.0322581"
"73263655","2898895018","0.0322581"
"2899131782","2902767540","0.532258"
"2902767540","2899131782","0.532258"
"2899131782","3011727649","0.0322581"
"3011727649","2899131782","0.0322581"
"2899131782","73263655","0.0322581"
"73263655","2899131782","0.0322581"
"2902767540","73263655","0.0322581"
"73263655","2902767540","0.0322581"
"3011727649","73263655","0.0322581"
"73263655","3011727649","0.0322581"
"1513050866","2342877758","0.95"
"2342877758","1513050866","0.95"
"1513050866","2020679445","0.25"
"2020679445","1513050866","0.25"
"2020679445","2902767540","0.25"
"2902767540","2020679445","0.25"
"2342877758","2902767540","0.45"
"2902767540","2342877758","0.45"
"2342877758","2479490066","0.2"
"2479490066","2342877758","0.2"
"2342877758","3011727649","0.2"
"3011727649","2342877758","0.2"
"1553509686","2604951413","1.81667"
"2604951413","1553509686","1.81667"
"1991638061","2604951413","3.08333"
"2604951413","1991638061","3.08333"
"2020615548","2604951413","3.88333"
"2604951413","2020615548","3.88333"
"2030715551","2604951413","5.08333"
"2604951413","2030715551","5.08333"
"2068628594","2604951413","2.16667"
"2604951413","2068628594","2.16667"
"1553509686","2037077419","0.166667"
"2037077419","1553509686","0.166667"
"1970584927","2037077419","0.166667"
"2037077419","1970584927","0.166667"
"1993549680","2037077419","0.166667"
"2037077419","1993549680","0.166667"
"2020615548","2037077419","0.166667"
"2037077419","2020615548","0.166667"
"2030715551","2037077419","0.166667"
"2037077419","2030715551","0.166667"
"2037077419","2068628594","0.166667"
"2068628594","2037077419","0.166667"
"1970584927","2604951413","1.96667"
"2604951413","1970584927","1.96667"
"1553509686","2479490066","0.166667"
"2479490066","1553509686","0.166667"
"1970584927","2479490066","0.166667"
"2479490066","1970584927","0.166667"
"1991638061","2479490066","0.166667"
"2479490066","1991638061","0.166667"
"2020615548","2479490066","0.666667"
"2479490066","2020615548","0.666667"
"2030715551","2479490066","0.666667"
"2479490066","2030715551","0.666667"
"2068628594","2479490066","0.166667"
"2479490066","2068628594","0.166667"
"1553509686","2503702355","0.142857"
"2503702355","1553509686","0.142857"
"1970584927","2503702355","0.142857"
"2503702355","1970584927","0.142857"
"1991638061","2503702355","0.142857"
"2503702355","1991638061","0.142857"
"2014814286","2503702355","0.142857"
"2503702355","2014814286","0.142857"
"2020615548","2503702355","0.142857"
"2503702355","2020615548","0.142857"
"2030715551","2503702355","0.142857"
"2503702355","2030715551","0.142857"
"2068628594","2503702355","0.142857"
"2503702355","2068628594","0.142857"
"1592044350","2014814286","1"
"2014814286","1592044350","1"
"1592044350","2898895018","2"
"2898895018","1592044350","2"
"1592044350","2026775901","1.49167"
"2026775901","1592044350","1.49167"
"2026775901","2095519076","0.333333"
"2095519076","2026775901","0.333333"
"2026775901","2603290394","0.333333"
"2603290394","2026775901","0.333333"
"1592044350","1975627322","0.290909"
"1975627322","1592044350","0.290909"
"1975627322","2032646517","0.40202"
"2032646517","1975627322","0.40202"
"1975627322","2095519076","0.40202"
"2095519076","1975627322","0.40202"
"1975627322","2232209423","0.40202"
"2232209423","1975627322","0.40202"
"1975627322","2603290394","1.29091"
"2603290394","1975627322","1.29091"
"1592044350","2768392855","0.833333"
"2768392855","1592044350","0.833333"
"2011072533","2768392855","0.333333"
"2768392855","2011072533","0.333333"
"2051402533","2768392855","0.333333"
"2768392855","2051402533","0.333333"
"1592044350","3011727649","0.5"
"3011727649","1592044350","0.5"
"1592044350","1977955327","0.658333"
"1977955327","1592044350","0.658333"
"1977955327","2026775901","0.325"
"2026775901","1977955327","0.325"
"2011072533","2026775901","0.533333"
"2026775901","2011072533","0.533333"
"2026775901","2032646517","0.825"
"2032646517","2026775901","0.825"
"2026775901","2134010515","0.95"
"2134010515","2026775901","0.95"
"1592044350","2032199835","0.67619"
"2032199835","1592044350","0.67619"
"2009682549","2032199835","6.84286"
"2032199835","2009682549","6.84286"
"2011072533","2032199835","0.283333"
"2032199835","2011072533","0.283333"
"2032199835","2059848388","0.283333"
"2059848388","2032199835","0.283333"
"2032199835","2902243749","3.25952"
"2902243749","2032199835","3.25952"
"1592044350","73263655","0.549242"
"73263655","1592044350","0.549242"
"1975627322","2009682549","0.785354"
"2009682549","1975627322","0.785354"
"1975627322","2011072533","0.0909091"
"2011072533","1975627322","0.0909091"
"1975627322","2051402533","0.20202"
"2051402533","1975627322","0.20202"
"1975627322","2134010515","2.45202"
"2134010515","1975627322","2.45202"
"1975627322","2902243749","0.785354"
"2902243749","1975627322","0.785354"
"1975627322","73263655","0.0909091"
"73263655","1975627322","0.0909091"
"2009682549","73263655","0.340909"
"73263655","2009682549","0.340909"
"2603290394","73263655","0.0909091"
"73263655","2603290394","0.0909091"
"2902243749","73263655","0.983766"
"73263655","2902243749","0.983766"
"1592044350","2020679445","0.5"
"2020679445","1592044350","0.5"
"1592044350","2599238723","0.5"
"2599238723","1592044350","0.5"
"2020679445","2599238723","0.5"
"2599238723","2020679445","0.5"
"1592044350","1975652117","0.125"
"1975652117","1592044350","0.125"
"1592044350","2031993859","0.125"
"2031993859","1592044350","0.125"
"1975652117","2026775901","0.125"
"2026775901","1975652117","0.125"
"2026775901","2031993859","0.375"
"2031993859","2026775901","0.375"
"2026775901","2051402533","0.458333"
"2051402533","2026775901","0.458333"
"2026775901","2232209423","1.125"
"2232209423","2026775901","1.125"
"2026775901","73263655","0.125"
"73263655","2026775901","0.125"
"1592044350","2094878339","0.47619"
"2094878339","1592044350","0.47619"
"2009682549","2094878339","4.39286"
"2094878339","2009682549","4.39286"
"2032199835","2094878339","4.39286"
"2094878339","2032199835","4.39286"
"2032199835","2032646517","0.142857"
"2032646517","2032199835","0.142857"
"2032199835","2051402533","0.142857"
"2051402533","2032199835","0.142857"
"2032199835","2902767540","0.142857"
"2902767540","2032199835","0.142857"
"2032646517","2094878339","0.142857"
"2094878339","2032646517","0.142857"
"2051402533","2094878339","0.142857"
"2094878339","2051402533","0.142857"
"2094878339","2902243749","2.30952"
"2902243749","2094878339","2.30952"
"2094878339","2902767540","0.142857"
"2902767540","2094878339","0.142857"
"1592044350","1975864252","0.333333"
"1975864252","1592044350","0.333333"
"1828918404","2022054913","1.33333"
"2022054913","1828918404","1.33333"
"1828918404","2095519076","1.33333"
"2095519076","1828918404","1.33333"
"1828918404","2120051256","0.583333"
"2120051256","1828918404","0.583333"
"1828918404","1975864252","0.25"
"1975864252","1828918404","0.25"
"1828918404","1977955327","0.25"
"1977955327","1828918404","0.25"
"1828918404","73263655","0.25"
"73263655","1828918404","0.25"
"2020679445","2479490066","0.5"
"2479490066","2020679445","0.5"
"193941980","2484106217","1"
"2484106217","193941980","1"
"193941980","2601003474","10.5"
"2601003474","193941980","10.5"
"193941980","2503702355","2.5"
"2503702355","193941980","2.5"
"2503702355","2601003474","0.5"
"2601003474","2503702355","0.5"
"1970584927","2902243749","0.5"
"2902243749","1970584927","0.5"
"2020615548","2902243749","0.5"
"2902243749","2020615548","0.5"
"1975627322","2898895018","0.333333"
"2898895018","1975627322","0.333333"
"2009682549","2898895018","0.333333"
"2898895018","2009682549","0.333333"
"2898895018","2902243749","0.333333"
"2902243749","2898895018","0.333333"
"1975627322","2037077419","1"
"2037077419","1975627322","1"
"1975627322","1975652117","3"
"1975652117","1975627322","3"
"1975627322","2042562418","1"
"2042562418","1975627322","1"
"1975627322","2032199835","0.25"
"2032199835","1975627322","0.25"
"1975627322","2094878339","0.25"
"2094878339","1975627322","0.25"
"1975627322","2031993859","1.36111"
"2031993859","1975627322","1.36111"
"1975627322","2026775901","0.25"
"2026775901","1975627322","0.25"
"1975627322","2342877758","0.25"
"2342877758","1975627322","0.25"
"2026775901","2342877758","0.25"
"2342877758","2026775901","0.25"
"2031993859","2342877758","2.75"
"2342877758","2031993859","2.75"
"2134010515","2342877758","0.25"
"2342877758","2134010515","0.25"
"1975627322","2655124276","0.111111"
"2655124276","1975627322","0.111111"
"2009682549","2031993859","0.194444"
"2031993859","2009682549","0.194444"
"2031993859","2902243749","0.337302"
"2902243749","2031993859","0.337302"
"1975627322","2010712005","1"
"2010712005","1975627322","1"
"1975652117","2009682549","0.833333"
"2009682549","1975652117","0.833333"
"1975652117","2032199835","0.833333"
"2032199835","1975652117","0.833333"
"1975652117","2094878339","1"
"2094878339","1975652117","1"
"1975652117","2902243749","0.333333"
"2902243749","1975652117","0.333333"
"1975864252","2009682549","0.583333"
"2009682549","1975864252","0.583333"
"1975864252","2032199835","0.0833333"
"2032199835","1975864252","0.0833333"
"1975864252","2037077419","0.75"
"2037077419","1975864252","0.75"
"1975864252","2902243749","0.25"
"2902243749","1975864252","0.25"
"1977955327","2009682549","0.5"
"2009682549","1977955327","0.5"
"1977955327","2032199835","0.333333"
"2032199835","1977955327","0.333333"
"1977955327","2037077419","0.892857"
"2037077419","1977955327","0.892857"
"1977955327","2902243749","1.14286"
"2902243749","1977955327","1.14286"
"200882292","2009682549","0.416667"
"2009682549","200882292","0.416667"
"200882292","2032199835","0.0833333"
"2032199835","200882292","0.0833333"
"200882292","2037077419","1.22619"
"2037077419","200882292","1.22619"
"200882292","2902243749","0.22619"
"2902243749","200882292","0.22619"
"2010712005","2032199835","0.0833333"
"2032199835","2010712005","0.0833333"
"2031993859","2032199835","0.0833333"
"2032199835","2031993859","0.0833333"
"2031993859","2037077419","0.22619"
"2037077419","2031993859","0.22619"
"2032199835","2037077419","0.0833333"
"2037077419","2032199835","0.0833333"
"2032199835","2042562418","0.0833333"
"2042562418","2032199835","0.0833333"
"2032199835","73263655","0.0833333"
"73263655","2032199835","0.0833333"
"2037077419","73263655","0.892857"
"73263655","2037077419","0.892857"
"1975864252","2015144267","0.166667"
"2015144267","1975864252","0.166667"
"1977955327","2015144267","0.166667"
"2015144267","1977955327","0.166667"
"1993549680","2015144267","0.166667"
"2015144267","1993549680","0.166667"
"2015144267","2059848388","0.166667"
"2059848388","2015144267","0.166667"
"2015144267","2095519076","0.666667"
"2095519076","2015144267","0.666667"
"2015144267","73263655","0.166667"
"73263655","2015144267","0.166667"
"1977955327","2094878339","0.25"
"2094878339","1977955327","0.25"
"2008822184","2031993859","0.5"
"2031993859","2008822184","0.5"
"2008822184","2134010515","1.5"
"2134010515","2008822184","1.5"
"2009682549","2342877758","0.25"
"2342877758","2009682549","0.25"
"2009682549","2885799613","0.25"
"2885799613","2009682549","0.25"
"2032199835","2342877758","0.25"
"2342877758","2032199835","0.25"
"2032199835","2885799613","0.25"
"2885799613","2032199835","0.25"
"2094878339","2342877758","0.25"
"2342877758","2094878339","0.25"
"2094878339","2885799613","0.25"
"2885799613","2094878339","0.25"
"2342877758","2885799613","3.25"
"2885799613","2342877758","3.25"
"2009682549","2949074561","0.333333"
"2949074561","2009682549","0.333333"
"2032199835","2949074561","0.333333"
"2949074561","2032199835","0.333333"
"2902243749","2949074561","0.333333"
"2949074561","2902243749","0.333333"
"2011072533","2604951413","1.16667"
"2604951413","2011072533","1.16667"
"2011072533","2015144267","0.166667"
"2015144267","2011072533","0.166667"
"2011072533","2885799613","0.166667"
"2885799613","2011072533","0.166667"
"2015144267","2031993859","0.166667"
"2031993859","2015144267","0.166667"
"2015144267","2604951413","0.166667"
"2604951413","2015144267","0.166667"
"2015144267","2885799613","0.166667"
"2885799613","2015144267","0.166667"
"2015144267","2902767540","0.166667"
"2902767540","2015144267","0.166667"
"2015144267","3011727649","0.166667"
"3011727649","2015144267","0.166667"
"2031993859","2604951413","0.166667"
"2604951413","2031993859","0.166667"
"2031993859","2885799613","1.16667"
"2885799613","2031993859","1.16667"
"2604951413","2885799613","0.166667"
"2885799613","2604951413","0.166667"
"2604951413","2902767540","0.166667"
"2902767540","2604951413","0.166667"
"2604951413","3011727649","0.166667"
"3011727649","2604951413","0.166667"
"2885799613","2902767540","1.66667"
"2902767540","2885799613","1.66667"
"2885799613","3011727649","0.166667"
"3011727649","2885799613","0.166667"
"2015144267","2037077419","4"
"2037077419","2015144267","4"
"2015144267","2120051256","1.5"
"2120051256","2015144267","1.5"
"2037077419","2120051256","2"
"2120051256","2037077419","2"
"2020615548","2484106217","0.5"
"2484106217","2020615548","0.5"
"2030715551","2484106217","0.5"
"2484106217","2030715551","0.5"
"2022054913","2484106217","1"
"2484106217","2022054913","1"
"2026775901","2599238723","1"
"2599238723","2026775901","1"
"2026775901","2092414635","0.5"
"2092414635","2026775901","0.5"
"2092414635","2134010515","0.5"
"2134010515","2092414635","0.5"
"2031993859","2603290394","4.5"
"2603290394","2031993859","4.5"
"2342877758","2603290394","1.5"
"2603290394","2342877758","1.5"
"2092414635","2603290394","1"
"2603290394","2092414635","1"
"2092414635","2899131782","3"
"2899131782","2092414635","3"
"2092414635","2898895018","1"
"2898895018","2092414635","1"
"2484106217","2604951413","1"
"2604951413","2484106217","1"
"2885799613","2899131782","0.5"
"2899131782","2885799613","0.5"
