"1167383870","1528458083","0",\N
"1167383870","1553574251","0",\N
"1167383870","1969602225","0",\N
"1167383870","1970839222","0",\N
"1167383870","1971456506","0",\N
"1167383870","1972271182","0",\N
"1167383870","1974308463","0",\N
"1167383870","1974693807","0",\N
"1167383870","1974848076","0",\N
"1167383870","1976970404","0",\N
"1167383870","1977775605","0",\N
"1167383870","1978062397","0",\N
"1167383870","1980459317","0",\N
"1167383870","1980564456","0",\N
"1167383870","1980747063","0",\N
"1167383870","1984197017","0",\N
"1167383870","1987276007","0",\N
"1167383870","1988158983","0",\N
"1167383870","1991713036","0",\N
"1167383870","2000261326","0",\N
"1167383870","2004698524","0",\N
"1167383870","2011183596","0",\N
"1167383870","2022676291","0",\N
"1167383870","2023788359","0",\N
"1167383870","2030410030","0",\N
"1167383870","2031620219","0",\N
"1167383870","2033787086","0",\N
"1167383870","2038720791","0",\N
"1167383870","2044518475","0",\N
"1167383870","2045328438","0",\N
"1167383870","2054056739","0",\N
"1167383870","2061948361","0",\N
"1167383870","2062783969","0",\N
"1167383870","2063610441","0",\N
"1167383870","2065442155","0",\N
"1167383870","2068599127","0",\N
"1167383870","2076808107","0",\N
"1167383870","2084452891","0",\N
"1167383870","2086019018","0",\N
"1167383870","2086463568","0",\N
"1167383870","2090812999","0",\N
"1167383870","2091682424","0",\N
"1167383870","2112529922","0",\N
"1167383870","2124026719","0",\N
"1167383870","2126038711","0",\N
"1167383870","2147833957","0",\N
"1167383870","2165436720","0",\N
"1167383870","2169639024","0",\N
"1167383870","217726381","0",\N
"1167383870","2346953349","0",\N
"1167383870","2912565176","0",\N
"1167383870","47831683","0",\N
"1513050866","1731455596","0",\N
"1513050866","1975549305","0",\N
"1513050866","1980564456","0",\N
"1513050866","1990890901","0",\N
"1513050866","2020679445","1",\N
"1513050866","2025093212","0",\N
"1513050866","2029128277","0",\N
"1513050866","2034190452","0",\N
"1513050866","2038638323","0",\N
"1513050866","2050090718","0",\N
"1513050866","2102658276","0",\N
"1513050866","2116365436","0",\N
"1513050866","2131390763","0",\N
"1513050866","2157452305","0",\N
"1513050866","2167136686","0",\N
"1513050866","2167967165","0",\N
"1513050866","2912565176","0",\N
"1513050866","2996186646","0",\N
"1553509686","1003485024","0",\N
"1553509686","152569421","0",\N
"1553509686","1530884268","0",\N
"1553509686","1975061798","0",\N
"1553509686","1980658119","0",\N
"1553509686","1986565273","0",\N
"1553509686","1990406568","0",\N
"1553509686","1994458988","0",\N
"1553509686","1996846286","0",\N
"1553509686","2003580451","0",\N
"1553509686","2015164116","0",\N
"1553509686","2056597320","0",\N
"1553509686","2075527120","0",\N
"1553509686","2083210053","0",\N
"1553509686","2105089245","0",\N
"1553509686","2157202423","0",\N
"1553509686","2243030812","0",\N
"1553509686","2255756931","0",\N
"1553509686","2280687644","0",\N
"1553509686","2912565176","0",\N
"1553509686","59651660","0",\N
"1553509686","94203212","0",\N
"1592044350","1591894861","0",\N
"1592044350","175443862","0",\N
"1592044350","187757024","0",\N
"1592044350","189623986","0",\N
"1592044350","1965487407","0",\N
"1592044350","1969004598","0",\N
"1592044350","1972253454","0",\N
"1592044350","1975816145","0",\N
"1592044350","1976395969","0",\N
"1592044350","1977831825","0",\N
"1592044350","1980767704","0",\N
"1592044350","1983616527","0",\N
"1592044350","1984086474","0",\N
"1592044350","1987347924","0",\N
"1592044350","1988464112","0",\N
"1592044350","1994960820","0",\N
"1592044350","1995255365","0",\N
"1592044350","1996128561","0",\N
"1592044350","1997013438","0",\N
"1592044350","2000172809","0",\N
"1592044350","2001244983","0",\N
"1592044350","2004698524","0",\N
"1592044350","2011222503","0",\N
"1592044350","2012908264","0",\N
"1592044350","2018493899","0",\N
"1592044350","2021506989","0",\N
"1592044350","2026986528","0",\N
"1592044350","2027859047","0",\N
"1592044350","2032711326","0",\N
"1592044350","2034339643","0",\N
"1592044350","2034545314","0",\N
"1592044350","2035312235","0",\N
"1592044350","2037767697","0",\N
"1592044350","2041164434","0",\N
"1592044350","2042317257","0",\N
"1592044350","2042562418","1",\N
"1592044350","2044794538","0",\N
"1592044350","2055773694","0",\N
"1592044350","2056427612","0",\N
"1592044350","2059536960","0",\N
"1592044350","2061608022","0",\N
"1592044350","2063203005","0",\N
"1592044350","2064328476","0",\N
"1592044350","2065036849","0",\N
"1592044350","2065262720","0",\N
"1592044350","2068188900","0",\N
"1592044350","2068525223","0",\N
"1592044350","2069289046","0",\N
"1592044350","2072822487","0",\N
"1592044350","2079978024","0",\N
"1592044350","2080151622","0",\N
"1592044350","2080321857","0",\N
"1592044350","2083438692","0",\N
"1592044350","2086303348","0",\N
"1592044350","2086955682","0",\N
"1592044350","2091193229","0",\N
"1592044350","2093070358","0",\N
"1592044350","2093720461","0",\N
"1592044350","2095519076","1",\N
"1592044350","2101541482","0",\N
"1592044350","2103271443","0",\N
"1592044350","2132885717","0",\N
"1592044350","2136556027","0",\N
"1592044350","2141178894","0",\N
"1592044350","2151739142","0",\N
"1592044350","2160202105","0",\N
"1592044350","2165681141","0",\N
"1592044350","2167165857","0",\N
"1592044350","2585206336","0",\N
"1592044350","81088602","0",\N
"1828918404","1485840552","0",\N
"1828918404","1529369717","0",\N
"1828918404","1694159215","0",\N
"1828918404","1731455596","0",\N
"1828918404","1860690978","0",\N
"1828918404","1967056914","0",\N
"1828918404","1978062397","0",\N
"1828918404","1980564456","0",\N
"1828918404","1994997349","0",\N
"1828918404","2000261326","0",\N
"1828918404","2003992246","0",\N
"1828918404","2011216513","0",\N
"1828918404","2020679445","1",\N
"1828918404","2023447058","0",\N
"1828918404","2038638323","0",\N
"1828918404","2050262998","0",\N
"1828918404","2068069653","0",\N
"1828918404","2068843436","0",\N
"1828918404","2080054404","0",\N
"1828918404","2087991154","0",\N
"1828918404","2104491115","0",\N
"1828918404","2119671572","0",\N
"1828918404","2120051256","1",\N
"1828918404","2130388159","0",\N
"1828918404","2131390763","0",\N
"1828918404","2133311095","0",\N
"1828918404","2137668310","0",\N
"1828918404","2139487545","0",\N
"1828918404","2160333451","0",\N
"1828918404","217726381","0",\N
"1828918404","2186505036","0",\N
"1828918404","2327408831","0",\N
"1828918404","2346953349","0",\N
"1828918404","2397393125","0",\N
"1828918404","258743970","0",\N
"1828918404","95485234","0",\N
"193941980","150301184","0",\N
"193941980","1564340753","0",\N
"193941980","1659593174","0",\N
"193941980","1972048626","0",\N
"193941980","1972402852","0",\N
"193941980","2011392455","0",\N
"193941980","2012561498","0",\N
"193941980","2031188486","0",\N
"193941980","2040340467","0",\N
"193941980","2071056132","0",\N
"193941980","2088473659","0",\N
"193941980","2091076483","0",\N
"193941980","2091311817","0",\N
"193941980","2122063318","0",\N
"193941980","2122366632","0",\N
"193941980","2236606055","0",\N
"193941980","2601003474","1",\N
"193941980","73148602","0",\N
"193941980","877020875","0",\N
"1970584927","1530884268","0",\N
"1970584927","1553509686","1",\N
"1970584927","1593449005","0",\N
"1970584927","1858601427","0",\N
"1970584927","1969981247","0",\N
"1970584927","1975061798","0",\N
"1970584927","1978548453","0",\N
"1970584927","1990406568","0",\N
"1970584927","1994458988","0",\N
"1970584927","1994561238","0",\N
"1970584927","1996846286","0",\N
"1970584927","2003580451","0",\N
"1970584927","2004746949","0",\N
"1970584927","2019776800","0",\N
"1970584927","2023479678","0",\N
"1970584927","2040672440","0",\N
"1970584927","2043400408","0",\N
"1970584927","2055972523","0",\N
"1970584927","2056597320","0",\N
"1970584927","2074720695","0",\N
"1970584927","2075527120","0",\N
"1970584927","2083210053","0",\N
"1970584927","2085238338","0",\N
"1970584927","2105089245","0",\N
"1970584927","2157202423","0",\N
"1970584927","2163982943","0",\N
"1970584927","2170789143","0",\N
"1970584927","2243030812","0",\N
"1970584927","2255756931","0",\N
"1970584927","2280687644","0",\N
"1970584927","2479654626","0",\N
"1970584927","2487775320","0",\N
"1970584927","2912565176","0",\N
"1970584927","59651660","0",\N
"1970584927","84097466","0",\N
"1975627322","1526877640","0",\N
"1975627322","1552174551","0",\N
"1975627322","1575565855","0",\N
"1975627322","1575875887","0",\N
"1975627322","1748537427","0",\N
"1975627322","193997673","0",\N
"1975627322","1963924839","0",\N
"1975627322","1965473535","0",\N
"1975627322","1966363240","0",\N
"1975627322","1967212116","0",\N
"1975627322","1975774118","0",\N
"1975627322","1986740869","0",\N
"1975627322","1991901402","0",\N
"1975627322","2000113121","0",\N
"1975627322","2000738091","0",\N
"1975627322","2003565851","0",\N
"1975627322","2006580575","0",\N
"1975627322","2006706698","0",\N
"1975627322","2009513178","0",\N
"1975627322","2010868849","0",\N
"1975627322","2017688001","0",\N
"1975627322","2021506989","0",\N
"1975627322","2022101685","0",\N
"1975627322","2028464562","0",\N
"1975627322","2031489801","0",\N
"1975627322","2047809005","0",\N
"1975627322","2049475088","0",\N
"1975627322","2050629115","0",\N
"1975627322","2050751947","0",\N
"1975627322","2053750940","0",\N
"1975627322","2059536960","0",\N
"1975627322","2065473264","0",\N
"1975627322","2067185661","0",\N
"1975627322","2086088289","0",\N
"1975627322","2086385414","0",\N
"1975627322","2086653644","0",\N
"1975627322","2094688336","0",\N
"1975627322","2121755562","0",\N
"1975627322","2136106356","0",\N
"1975627322","2142675512","0",\N
"1975627322","2150555749","0",\N
"1975627322","2168936936","0",\N
"1975627322","2169920220","0",\N
"1975627322","228697766","0",\N
"1975627322","2297447194","0",\N
"1975627322","2603290394","1",\N
"1975627322","2974428062","0",\N
"1975627322","59413458","0",\N
"1975652117","1504705153","0",\N
"1975652117","1983937434","0",\N
"1975652117","1988676363","0",\N
"1975652117","2006706698","0",\N
"1975652117","2049475088","0",\N
"1975652117","2050751947","0",\N
"1975652117","2068188900","0",\N
"1975652117","2070355688","0",\N
"1975652117","2090818178","0",\N
"1975652117","2105258667","0",\N
"1975652117","2141157449","0",\N
"1975652117","2167103109","0",\N
"1975652117","2170974695","0",\N
"1975652117","2603290394","1",\N
"1975652117","2912565176","0",\N
"1975652117","2973218851","0",\N
"1975864252","1486135718","0",\N
"1975864252","1546067212","0",\N
"1975864252","1553228286","0",\N
"1975864252","1573513981","0",\N
"1975864252","1575541126","0",\N
"1975864252","164332242","0",\N
"1975864252","1966783909","0",\N
"1975864252","1969140532","0",\N
"1975864252","1971734261","0",\N
"1975864252","1973507437","0",\N
"1975864252","1974910227","0",\N
"1975864252","1977849248","0",\N
"1975864252","1984639421","0",\N
"1975864252","1986808060","0",\N
"1975864252","1994997349","0",\N
"1975864252","1996636297","0",\N
"1975864252","2001575080","0",\N
"1975864252","2002210528","0",\N
"1975864252","2003178581","0",\N
"1975864252","2005955166","0",\N
"1975864252","2015189595","0",\N
"1975864252","2020587134","0",\N
"1975864252","2036701015","0",\N
"1975864252","2042102899","0",\N
"1975864252","2054581952","0",\N
"1975864252","2067375156","0",\N
"1975864252","2070555714","0",\N
"1975864252","2075851621","0",\N
"1975864252","2076743844","0",\N
"1975864252","2081466545","0",\N
"1975864252","2086390519","0",\N
"1975864252","2092634091","0",\N
"1975864252","2096920304","0",\N
"1975864252","2106685455","0",\N
"1975864252","2107390469","0",\N
"1975864252","2121865032","0",\N
"1975864252","2143286545","0",\N
"1975864252","2150658633","0",\N
"1975864252","2151739142","0",\N
"1975864252","2159537471","0",\N
"1975864252","2444497840","0",\N
"1975864252","2516815666","0",\N
"1975864252","2554051268","0",\N
"1975864252","2726243429","0",\N
"1975864252","2798351250","0",\N
"1975864252","2912565176","0",\N
"1975864252","30772897","1",\N
"1977955327","1546067212","0",\N
"1977955327","1606108510","0",\N
"1977955327","194786220","0",\N
"1977955327","1969140532","0",\N
"1977955327","1994997349","0",\N
"1977955327","1996636297","0",\N
"1977955327","2002210528","0",\N
"1977955327","2008724376","0",\N
"1977955327","2011457410","0",\N
"1977955327","2019529630","0",\N
"1977955327","2020587134","0",\N
"1977955327","2034339643","0",\N
"1977955327","2042102899","0",\N
"1977955327","2055077282","0",\N
"1977955327","2068188900","0",\N
"1977955327","2086390519","0",\N
"1977955327","2087750581","0",\N
"1977955327","2092553756","0",\N
"1977955327","2092634091","0",\N
"1977955327","2107390469","0",\N
"1977955327","2124599616","0",\N
"1977955327","2143286545","0",\N
"1977955327","2151739142","0",\N
"1977955327","2267735107","0",\N
"1977955327","2506768821","0",\N
"1977955327","2912565176","0",\N
"1991638061","152569421","0",\N
"1991638061","1546472494","0",\N
"1991638061","1553509686","1",\N
"1991638061","1593449005","0",\N
"1991638061","1858601427","0",\N
"1991638061","1969981247","0",\N
"1991638061","1974521100","0",\N
"1991638061","1978548453","0",\N
"1991638061","1980658119","0",\N
"1991638061","1990406568","0",\N
"1991638061","1993866621","0",\N
"1991638061","1994086916","0",\N
"1991638061","1994458988","0",\N
"1991638061","1994561238","0",\N
"1991638061","1996846286","0",\N
"1991638061","2003580451","0",\N
"1991638061","2004746949","0",\N
"1991638061","2015164116","0",\N
"1991638061","2019776800","0",\N
"1991638061","2022448987","0",\N
"1991638061","2026121122","0",\N
"1991638061","2043400408","0",\N
"1991638061","2050896842","0",\N
"1991638061","2052750239","0",\N
"1991638061","2055790956","0",\N
"1991638061","2055972523","0",\N
"1991638061","2056597320","0",\N
"1991638061","2062207040","0",\N
"1991638061","2068628594","1",\N
"1991638061","2074720695","0",\N
"1991638061","2075527120","0",\N
"1991638061","2083210053","0",\N
"1991638061","2090644744","0",\N
"1991638061","2105089245","0",\N
"1991638061","2157202423","0",\N
"1991638061","2255756931","0",\N
"1991638061","2280687644","0",\N
"1991638061","2912565176","0",\N
"1993549680","1517490472","0",\N
"1993549680","1530041619","0",\N
"1993549680","1569706358","0",\N
"1993549680","1928926442","0",\N
"1993549680","1968977056","0",\N
"1993549680","1975061798","0",\N
"1993549680","1982420538","0",\N
"1993549680","1984625685","0",\N
"1993549680","1987267606","0",\N
"1993549680","1988018697","0",\N
"1993549680","2003649147","0",\N
"1993549680","2016714167","0",\N
"1993549680","2029101061","0",\N
"1993549680","2033187246","0",\N
"1993549680","2042402833","0",\N
"1993549680","2057327631","0",\N
"1993549680","2058959811","0",\N
"1993549680","2071522426","0",\N
"1993549680","2072574902","0",\N
"1993549680","2073387707","0",\N
"1993549680","2073577518","0",\N
"1993549680","2086390519","0",\N
"1993549680","2088291918","0",\N
"1993549680","2095183105","0",\N
"1993549680","2096768134","0",\N
"1993549680","2110328206","0",\N
"1993549680","2130527646","0",\N
"1993549680","2156442229","0",\N
"1993549680","2167785284","0",\N
"1993549680","2912565176","0",\N
"1993549680","78746809","0",\N
"2008822184","1559875088","0",\N
"2008822184","1988149616","0",\N
"2008822184","2003244395","0",\N
"2008822184","2006258551","0",\N
"2008822184","2012156222","0",\N
"2008822184","2017521805","0",\N
"2008822184","2018638861","0",\N
"2008822184","2023090166","0",\N
"2008822184","2025604780","0",\N
"2008822184","2027271509","0",\N
"2008822184","2028697859","0",\N
"2008822184","2030177779","0",\N
"2008822184","2032044862","0",\N
"2008822184","2041085006","0",\N
"2008822184","2044478148","0",\N
"2008822184","2046933642","0",\N
"2008822184","2055524705","0",\N
"2008822184","2059239932","0",\N
"2008822184","2063846985","0",\N
"2008822184","2081192926","0",\N
"2008822184","2085180198","0",\N
"2008822184","2095821391","0",\N
"2008822184","2108112118","0",\N
"2008822184","2115427293","0",\N
"2008822184","2125084527","0",\N
"2008822184","2128616647","0",\N
"2008822184","2276419630","0",\N
"2008822184","2286472198","0",\N
"2008822184","2289712525","0",\N
"200882292","1495481456","0",\N
"200882292","1546067212","0",\N
"200882292","1573513981","0",\N
"200882292","194786220","0",\N
"200882292","1974881915","0",\N
"200882292","1987087641","0",\N
"200882292","2004216252","0",\N
"200882292","2019198572","0",\N
"200882292","2026605835","0",\N
"200882292","2058295453","0",\N
"200882292","2074933914","0",\N
"200882292","2086215390","0",\N
"200882292","2098897479","0",\N
"200882292","2124569501","0",\N
"200882292","2150718415","0",\N
"200882292","2163270009","0",\N
"200882292","2167307376","0",\N
"200882292","2912565176","0",\N
"2009682549","1379837","0",\N
"2009682549","1504705153","0",\N
"2009682549","1546067212","0",\N
"2009682549","1573513981","0",\N
"2009682549","1585486324","0",\N
"2009682549","160014122","0",\N
"2009682549","1748537427","0",\N
"2009682549","1965701024","0",\N
"2009682549","1967797224","0",\N
"2009682549","1968769172","0",\N
"2009682549","1969821593","0",\N
"2009682549","1974848076","0",\N
"2009682549","1975652117","1",\N
"2009682549","1985939561","0",\N
"2009682549","1986177581","0",\N
"2009682549","1987347924","0",\N
"2009682549","1991901151","0",\N
"2009682549","1992581312","0",\N
"2009682549","1997740464","0",\N
"2009682549","2004698524","0",\N
"2009682549","2004956772","0",\N
"2009682549","2005971019","0",\N
"2009682549","2007120084","0",\N
"2009682549","2007983128","0",\N
"2009682549","2008724376","0",\N
"2009682549","2013227408","0",\N
"2009682549","2014089538","0",\N
"2009682549","2022101685","0",\N
"2009682549","2030370699","0",\N
"2009682549","2034545314","0",\N
"2009682549","2036340310","0",\N
"2009682549","2042102899","0",\N
"2009682549","2054905425","0",\N
"2009682549","2059536960","0",\N
"2009682549","2063024008","0",\N
"2009682549","2065109455","0",\N
"2009682549","2072822487","0",\N
"2009682549","2081391452","0",\N
"2009682549","2093070358","0",\N
"2009682549","2105370822","0",\N
"2009682549","2116163370","0",\N
"2009682549","2149142356","0",\N
"2009682549","2155455494","0",\N
"2009682549","2167159257","0",\N
"2009682549","2168936936","0",\N
"2009682549","2973218851","0",\N
"2009682549","580032574","0",\N
"2009682549","645513293","0",\N
"2010712005","1500776882","0",\N
"2010712005","1513388579","0",\N
"2010712005","1546067212","0",\N
"2010712005","1721421031","0",\N
"2010712005","1857675993","0",\N
"2010712005","194786220","0",\N
"2010712005","1963670955","0",\N
"2010712005","1968368027","0",\N
"2010712005","1969941463","0",\N
"2010712005","1976698013","0",\N
"2010712005","1977777040","0",\N
"2010712005","1982214937","0",\N
"2010712005","1999514691","0",\N
"2010712005","2000016084","0",\N
"2010712005","2000151453","0",\N
"2010712005","2004698524","0",\N
"2010712005","2011457410","0",\N
"2010712005","2018668985","0",\N
"2010712005","2019381741","0",\N
"2010712005","2024337382","0",\N
"2010712005","2038767603","0",\N
"2010712005","2044804146","0",\N
"2010712005","2047229071","0",\N
"2010712005","2057012437","0",\N
"2010712005","2057463170","0",\N
"2010712005","2066024705","0",\N
"2010712005","2070062084","0",\N
"2010712005","2075030947","0",\N
"2010712005","2076309564","0",\N
"2010712005","2082213477","0",\N
"2010712005","2086303348","0",\N
"2010712005","2087658235","0",\N
"2010712005","2088895421","0",\N
"2010712005","2102710958","0",\N
"2010712005","2106611382","0",\N
"2010712005","2131914501","0",\N
"2010712005","2142822317","0",\N
"2010712005","2146143340","0",\N
"2010712005","2150694677","0",\N
"2010712005","2158846889","0",\N
"2010712005","2163191783","0",\N
"2010712005","2169920220","0",\N
"2010712005","2252359152","0",\N
"2010712005","2339492388","0",\N
"2010712005","2625114654","0",\N
"2010712005","2912565176","0",\N
"2011072533","1492038503","0",\N
"2011072533","1546067212","0",\N
"2011072533","1591894861","0",\N
"2011072533","1822004825","0",\N
"2011072533","1984086474","0",\N
"2011072533","1987347924","0",\N
"2011072533","2000172809","0",\N
"2011072533","2004698524","0",\N
"2011072533","2027859047","0",\N
"2011072533","2034339643","0",\N
"2011072533","2034545314","0",\N
"2011072533","2055291147","0",\N
"2011072533","2059536960","0",\N
"2011072533","2091193229","0",\N
"2011072533","2093720461","0",\N
"2011072533","2095519076","1",\N
"2011072533","2096918990","0",\N
"2011072533","2126930230","0",\N
"2011072533","2141178894","0",\N
"2011072533","2157041604","0",\N
"2011072533","2286090524","0",\N
"2011072533","2912565176","0",\N
"2011072533","81088602","0",\N
"2014814286","1493503622","0",\N
"2014814286","1549493899","0",\N
"2014814286","189623986","0",\N
"2014814286","1968822837","0",\N
"2014814286","1971559726","0",\N
"2014814286","2022674561","0",\N
"2014814286","2024370523","0",\N
"2014814286","2028343816","0",\N
"2014814286","2032860160","0",\N
"2014814286","2045161707","0",\N
"2014814286","2046088638","0",\N
"2014814286","2096768134","0",\N
"2014814286","2101680584","0",\N
"2014814286","2111604546","0",\N
"2014814286","2119328379","0",\N
"2014814286","2129377134","0",\N
"2014814286","2157202423","0",\N
"2014814286","2250446598","0",\N
"2014814286","2275806441","0",\N
"2014814286","2329119447","0",\N
"2014814286","2796286277","0",\N
"2014814286","2912565176","0",\N
"2014814286","2942652584","0",\N
"2014814286","3015829885","0",\N
"2015144267","1982241343","0",\N
"2015144267","1986550159","0",\N
"2015144267","1992136880","0",\N
"2015144267","2006081624","0",\N
"2015144267","2012716954","0",\N
"2015144267","2016303054","0",\N
"2015144267","2020038397","0",\N
"2015144267","2052261629","0",\N
"2015144267","2053678255","0",\N
"2015144267","2069032061","0",\N
"2015144267","2073325991","0",\N
"2015144267","2078538587","0",\N
"2015144267","2081825717","0",\N
"2015144267","2086390519","0",\N
"2015144267","2128980567","0",\N
"2015144267","2157041604","0",\N
"2015144267","2163685038","0",\N
"2020615548","152569421","0",\N
"2020615548","1530884268","0",\N
"2020615548","1553509686","1",\N
"2020615548","1858601427","0",\N
"2020615548","1969981247","0",\N
"2020615548","1970584927","1",\N
"2020615548","1975061798","0",\N
"2020615548","1978548453","0",\N
"2020615548","1990406568","0",\N
"2020615548","1991638061","1",\N
"2020615548","1993866621","0",\N
"2020615548","1994086916","0",\N
"2020615548","1994458988","0",\N
"2020615548","1994561238","0",\N
"2020615548","1996846286","0",\N
"2020615548","2000708234","0",\N
"2020615548","2003580451","0",\N
"2020615548","2015164116","0",\N
"2020615548","2029959771","0",\N
"2020615548","2032714105","0",\N
"2020615548","2056597320","0",\N
"2020615548","2060900651","0",\N
"2020615548","2068628594","1",\N
"2020615548","2078932610","0",\N
"2020615548","2082577065","0",\N
"2020615548","2082882670","1",\N
"2020615548","2083210053","0",\N
"2020615548","2105089245","0",\N
"2020615548","2118408393","0",\N
"2020615548","2157202423","0",\N
"2020615548","2170789143","0",\N
"2020615548","2255756931","0",\N
"2020615548","2280687644","0",\N
"2020615548","2487775320","0",\N
"2020615548","284406453","0",\N
"2020615548","2912565176","0",\N
"2020615548","628979136","0",\N
"2020615548","84097466","0",\N
"2020679445","126032799","0",\N
"2020679445","1973278173","0",\N
"2020679445","1978062397","0",\N
"2020679445","1983343002","0",\N
"2020679445","1984502995","0",\N
"2020679445","1991419869","0",\N
"2020679445","1992628733","0",\N
"2020679445","1993635823","0",\N
"2020679445","1998945301","0",\N
"2020679445","2001573881","0",\N
"2020679445","2003992246","0",\N
"2020679445","2009530833","0",\N
"2020679445","2013951629","0",\N
"2020679445","2024141016","0",\N
"2020679445","2029982592","0",\N
"2020679445","2031847354","0",\N
"2020679445","2032066396","0",\N
"2020679445","2038638323","0",\N
"2020679445","2043007512","0",\N
"2020679445","2043444342","0",\N
"2020679445","2057437156","0",\N
"2020679445","2057559819","0",\N
"2020679445","2061591298","0",\N
"2020679445","2063149790","0",\N
"2020679445","2063472729","0",\N
"2020679445","2064795900","0",\N
"2020679445","2065262720","0",\N
"2020679445","2068123185","0",\N
"2020679445","2070240374","0",\N
"2020679445","2083199031","0",\N
"2020679445","2084674986","0",\N
"2020679445","2087549671","0",\N
"2020679445","2091957041","0",\N
"2020679445","2094033592","0",\N
"2020679445","2097423137","0",\N
"2020679445","2109154854","0",\N
"2020679445","2117827905","0",\N
"2020679445","2128559289","0",\N
"2020679445","2237681562","0",\N
"2020679445","2396561843","0",\N
"2020679445","2491562227","0",\N
"2020679445","2555279814","0",\N
"2020679445","612978436","0",\N
"2020679445","79285826","0",\N
"2022054913","1502886583","0",\N
"2022054913","1518606886","0",\N
"2022054913","1860690978","0",\N
"2022054913","1967056914","0",\N
"2022054913","1979900348","0",\N
"2022054913","2019950953","0",\N
"2022054913","203580229","0",\N
"2022054913","2057251692","0",\N
"2022054913","2129015291","0",\N
"2022054913","2331301759","0",\N
"2022054913","2912565176","0",\N
"2022054913","612155195","0",\N
"2026775901","1480233247","0",\N
"2026775901","1595496302","0",\N
"2026775901","1597295471","0",\N
"2026775901","1901865882","0",\N
"2026775901","1967519272","0",\N
"2026775901","1972583977","0",\N
"2026775901","1972794857","0",\N
"2026775901","1972925461","0",\N
"2026775901","1996909999","0",\N
"2026775901","1997772982","0",\N
"2026775901","2001244983","0",\N
"2026775901","2001901016","0",\N
"2026775901","2003392801","0",\N
"2026775901","2013532250","0",\N
"2026775901","2017629562","0",\N
"2026775901","2024010314","0",\N
"2026775901","2032646517","1",\N
"2026775901","2034339643","0",\N
"2026775901","2039254880","0",\N
"2026775901","2068188900","0",\N
"2026775901","2068525223","0",\N
"2026775901","2086994149","0",\N
"2026775901","2094688336","0",\N
"2026775901","2095519076","1",\N
"2026775901","2100571412","0",\N
"2026775901","2105109159","0",\N
"2026775901","2113392571","0",\N
"2026775901","2125334037","0",\N
"2026775901","2169217613","0",\N
"2026775901","2344377684","0",\N
"2026775901","2751998548","0",\N
"2026775901","341584204","0",\N
"2026775901","73263655","1",\N
"2030715551","1035247949","0",\N
"2030715551","152569421","0",\N
"2030715551","1530884268","0",\N
"2030715551","1553509686","1",\N
"2030715551","1593449005","0",\N
"2030715551","1858601427","0",\N
"2030715551","1969981247","0",\N
"2030715551","1970584927","1",\N
"2030715551","1974521100","0",\N
"2030715551","1975061798","0",\N
"2030715551","1975975526","0",\N
"2030715551","1977506491","1",\N
"2030715551","1978548453","0",\N
"2030715551","1982417185","0",\N
"2030715551","1990406568","0",\N
"2030715551","1991638061","1",\N
"2030715551","1993866621","0",\N
"2030715551","1994086916","0",\N
"2030715551","1994458988","0",\N
"2030715551","1994561238","0",\N
"2030715551","1996846286","0",\N
"2030715551","2000708234","0",\N
"2030715551","2003580451","0",\N
"2030715551","2004746949","0",\N
"2030715551","2006718537","0",\N
"2030715551","2015164116","0",\N
"2030715551","2018330930","0",\N
"2030715551","2019776800","0",\N
"2030715551","2020615548","1",\N
"2030715551","2022448987","0",\N
"2030715551","2026121122","0",\N
"2030715551","2039871546","0",\N
"2030715551","2040027350","0",\N
"2030715551","2042434199","0",\N
"2030715551","2043400408","0",\N
"2030715551","2050896842","0",\N
"2030715551","2055790956","0",\N
"2030715551","2055972523","0",\N
"2030715551","2056597320","0",\N
"2030715551","2059097997","0",\N
"2030715551","2059421750","0",\N
"2030715551","2060900651","0",\N
"2030715551","2062207040","0",\N
"2030715551","2064451093","0",\N
"2030715551","2068628594","1",\N
"2030715551","2073885354","0",\N
"2030715551","2074720695","0",\N
"2030715551","2075527120","0",\N
"2030715551","2081420684","0",\N
"2030715551","2082577065","0",\N
"2030715551","2082882670","1",\N
"2030715551","2083210053","0",\N
"2030715551","2090106581","0",\N
"2030715551","2090644744","0",\N
"2030715551","2105089245","0",\N
"2030715551","2118408393","0",\N
"2030715551","2157202423","0",\N
"2030715551","2157232564","0",\N
"2030715551","2255756931","0",\N
"2030715551","2280687644","0",\N
"2030715551","284406453","0",\N
"2030715551","2912565176","0",\N
"2030715551","2979075442","0",\N
"2030715551","628979136","0",\N
"2031993859","1510078255","0",\N
"2031993859","1546067212","0",\N
"2031993859","1559875088","0",\N
"2031993859","1584441531","0",\N
"2031993859","161068908","0",\N
"2031993859","194786220","0",\N
"2031993859","1965191954","0",\N
"2031993859","1967550214","0",\N
"2031993859","1979733078","0",\N
"2031993859","1988037460","0",\N
"2031993859","1988843277","0",\N
"2031993859","1997563158","0",\N
"2031993859","2024719650","0",\N
"2031993859","2029226738","0",\N
"2031993859","2032889926","0",\N
"2031993859","2048288497","0",\N
"2031993859","2050751947","0",\N
"2031993859","2055309683","0",\N
"2031993859","2065181901","0",\N
"2031993859","2065584502","0",\N
"2031993859","2065752879","0",\N
"2031993859","2065875881","0",\N
"2031993859","2068188900","0",\N
"2031993859","2083624225","0",\N
"2031993859","2085900898","0",\N
"2031993859","2094688336","0",\N
"2031993859","2095301520","0",\N
"2031993859","2095308857","0",\N
"2031993859","2112959280","0",\N
"2031993859","2142392467","0",\N
"2031993859","2151124326","0",\N
"2031993859","2154370737","0",\N
"2031993859","2157041604","0",\N
"2031993859","2160867633","0",\N
"2031993859","2163078240","0",\N
"2031993859","2168936936","0",\N
"2031993859","2603290394","1",\N
"2031993859","2912565176","0",\N
"2031993859","569206859","0",\N
"2031993859","626196804","0",\N
"2032199835","1379837","0",\N
"2032199835","1504705153","0",\N
"2032199835","1546067212","0",\N
"2032199835","1968383175","0",\N
"2032199835","1969821593","0",\N
"2032199835","1975652117","1",\N
"2032199835","1983170111","0",\N
"2032199835","2004635908","0",\N
"2032199835","2004956772","0",\N
"2032199835","2008724376","0",\N
"2032199835","2009683547","0",\N
"2032199835","2022101685","0",\N
"2032199835","2026932390","0",\N
"2032199835","2030370699","0",\N
"2032199835","2034545314","0",\N
"2032199835","2065109455","0",\N
"2032199835","2068010321","0",\N
"2032199835","2068546047","0",\N
"2032199835","2068598324","0",\N
"2032199835","2072822487","0",\N
"2032199835","2079207811","0",\N
"2032199835","2093070358","0",\N
"2032199835","2095830460","0",\N
"2032199835","2101184618","0",\N
"2032199835","2118888363","0",\N
"2032199835","2119537142","0",\N
"2032199835","2149142356","0",\N
"2032199835","2155455494","0",\N
"2032199835","2168226975","0",\N
"2032199835","2973218851","0",\N
"2032199835","645513293","0",\N
"2032646517","1551663330","0",\N
"2032646517","1589963777","0",\N
"2032646517","1964415852","0",\N
"2032646517","1966219354","0",\N
"2032646517","1968076324","0",\N
"2032646517","1969211150","0",\N
"2032646517","1973822995","0",\N
"2032646517","1974826193","0",\N
"2032646517","1977282898","0",\N
"2032646517","1980586175","0",\N
"2032646517","1984896518","0",\N
"2032646517","1987347924","0",\N
"2032646517","1990865728","0",\N
"2032646517","1995235078","0",\N
"2032646517","2000172809","0",\N
"2032646517","2004698524","0",\N
"2032646517","2005143078","0",\N
"2032646517","2007940372","0",\N
"2032646517","2008360645","0",\N
"2032646517","2011222503","0",\N
"2032646517","2020345322","0",\N
"2032646517","2020635079","0",\N
"2032646517","2021388255","0",\N
"2032646517","2021506989","0",\N
"2032646517","2024654926","0",\N
"2032646517","2029580041","0",\N
"2032646517","2030335045","0",\N
"2032646517","2034339643","0",\N
"2032646517","2041210202","0",\N
"2032646517","2047815344","0",\N
"2032646517","2049567626","0",\N
"2032646517","2058660159","0",\N
"2032646517","2059536960","0",\N
"2032646517","2061820849","0",\N
"2032646517","2062704001","0",\N
"2032646517","2068188900","0",\N
"2032646517","2068525223","0",\N
"2032646517","2069289046","0",\N
"2032646517","2072676800","0",\N
"2032646517","2073778754","0",\N
"2032646517","2076429465","0",\N
"2032646517","2078980842","0",\N
"2032646517","2080151622","0",\N
"2032646517","2084006633","0",\N
"2032646517","2086955682","0",\N
"2032646517","2092620885","0",\N
"2032646517","2092634091","0",\N
"2032646517","2093070358","0",\N
"2032646517","2094657051","0",\N
"2032646517","2096768134","0",\N
"2032646517","2110625960","0",\N
"2032646517","2117586645","0",\N
"2032646517","2125881799","0",\N
"2032646517","2148146051","0",\N
"2032646517","2151267370","0",\N
"2032646517","2168936936","0",\N
"2032646517","219433537","0",\N
"2032646517","2496352033","0",\N
"2032646517","2912565176","0",\N
"2032646517","2973846153","0",\N
"2032646517","2997686356","0",\N
"2032646517","44073683","0",\N
"2037077419","10167475","0",\N
"2037077419","111796927","0",\N
"2037077419","1546067212","0",\N
"2037077419","194786220","0",\N
"2037077419","1965387747","0",\N
"2037077419","1969140532","0",\N
"2037077419","1974946744","0",\N
"2037077419","1975061798","0",\N
"2037077419","1982710770","0",\N
"2037077419","1986550159","0",\N
"2037077419","1990794890","0",\N
"2037077419","1991901402","0",\N
"2037077419","2001277869","0",\N
"2037077419","2004698524","0",\N
"2037077419","2012169861","0",\N
"2037077419","2015863957","0",\N
"2037077419","2016303054","0",\N
"2037077419","2026832772","0",\N
"2037077419","2027655085","0",\N
"2037077419","2029407995","0",\N
"2037077419","2036861478","0",\N
"2037077419","2038604975","0",\N
"2037077419","2039796074","0",\N
"2037077419","2043578191","0",\N
"2037077419","2051798785","0",\N
"2037077419","2058295453","0",\N
"2037077419","2069069851","0",\N
"2037077419","2072224657","0",\N
"2037077419","2075722074","0",\N
"2037077419","2078538587","0",\N
"2037077419","2080743721","0",\N
"2037077419","2081825717","0",\N
"2037077419","2084122390","0",\N
"2037077419","2086147261","0",\N
"2037077419","2088907949","0",\N
"2037077419","2105277963","0",\N
"2037077419","2107390469","0",\N
"2037077419","2128980567","0",\N
"2037077419","2129009627","0",\N
"2037077419","2716922966","0",\N
"2037077419","615620943","0",\N
"2042562418","1526190433","0",\N
"2042562418","1546067212","0",\N
"2042562418","1554018745","0",\N
"2042562418","1736698743","0",\N
"2042562418","1963543784","0",\N
"2042562418","1965354119","0",\N
"2042562418","1989013187","0",\N
"2042562418","1995547460","0",\N
"2042562418","1998910360","0",\N
"2042562418","2000016084","0",\N
"2042562418","2000426833","0",\N
"2042562418","2000662470","0",\N
"2042562418","2001110759","0",\N
"2042562418","2004698524","0",\N
"2042562418","2010868849","0",\N
"2042562418","2012193841","0",\N
"2042562418","2021845077","0",\N
"2042562418","2030203648","0",\N
"2042562418","2064707703","0",\N
"2042562418","2076309564","0",\N
"2042562418","2086061492","0",\N
"2042562418","2086303348","0",\N
"2042562418","2087658235","0",\N
"2042562418","2104512201","0",\N
"2042562418","2109420272","0",\N
"2042562418","211099204","0",\N
"2042562418","2114455139","0",\N
"2042562418","2114541394","0",\N
"2042562418","2131914501","0",\N
"2042562418","2163191783","0",\N
"2042562418","2164998768","0",\N
"2042562418","2326094293","0",\N
"2042562418","242489757","0",\N
"2042562418","2912565176","0",\N
"2042562418","651021686","0",\N
"2051402533","1969242179","0",\N
"2051402533","1974848076","0",\N
"2051402533","1987347924","0",\N
"2051402533","1989865793","0",\N
"2051402533","1994117419","0",\N
"2051402533","1994554764","0",\N
"2051402533","1998835069","0",\N
"2051402533","2001687823","0",\N
"2051402533","2004698524","0",\N
"2051402533","2017157407","0",\N
"2051402533","2017862096","0",\N
"2051402533","2025396079","0",\N
"2051402533","2027859047","0",\N
"2051402533","2048313750","0",\N
"2051402533","2056736038","0",\N
"2051402533","2059536960","0",\N
"2051402533","2065072722","0",\N
"2051402533","2066901868","0",\N
"2051402533","2068188900","0",\N
"2051402533","2092620885","0",\N
"2051402533","2093070358","0",\N
"2051402533","2093228212","0",\N
"2051402533","2095519076","1",\N
"2051402533","2166406328","0",\N
"2051402533","2168936936","0",\N
"2051402533","2268789535","0",\N
"2051402533","2912565176","0",\N
"2059848388","1546067212","0",\N
"2059848388","1573513981","0",\N
"2059848388","1595062280","0",\N
"2059848388","1987267606","0",\N
"2059848388","1993549680","1",\N
"2059848388","2002428732","0",\N
"2059848388","2004698524","0",\N
"2059848388","2012135637","0",\N
"2059848388","2016371562","0",\N
"2059848388","2016714167","0",\N
"2059848388","2034545314","0",\N
"2059848388","2037105767","0",\N
"2059848388","2037655719","0",\N
"2059848388","2042102899","0",\N
"2059848388","2042109149","0",\N
"2059848388","2071522426","0",\N
"2059848388","2076090057","0",\N
"2059848388","2077257922","0",\N
"2059848388","2081381094","0",\N
"2059848388","2086390519","0",\N
"2059848388","2088291918","0",\N
"2059848388","2106674228","0",\N
"2059848388","2110328206","0",\N
"2059848388","2131915923","0",\N
"2059848388","2912565176","0",\N
"2059848388","78746809","0",\N
"2068628594","152569421","0",\N
"2068628594","1553509686","1",\N
"2068628594","1554434465","0",\N
"2068628594","1593449005","0",\N
"2068628594","1858601427","0",\N
"2068628594","1964144556","0",\N
"2068628594","1973267885","0",\N
"2068628594","1975061798","0",\N
"2068628594","1978548453","0",\N
"2068628594","1980658119","0",\N
"2068628594","1990406568","0",\N
"2068628594","1994458988","0",\N
"2068628594","1994561238","0",\N
"2068628594","1996846286","0",\N
"2068628594","2003580451","0",\N
"2068628594","2023479678","0",\N
"2068628594","2040672440","0",\N
"2068628594","2044000477","0",\N
"2068628594","2056597320","0",\N
"2068628594","2075527120","0",\N
"2068628594","2083210053","0",\N
"2068628594","2105089245","0",\N
"2068628594","2113095617","0",\N
"2068628594","2157202423","0",\N
"2068628594","2170789143","0",\N
"2068628594","2243030812","0",\N
"2068628594","2255756931","0",\N
"2068628594","2280687644","0",\N
"2068628594","2479654626","0",\N
"2068628594","2912565176","0",\N
"2068628594","363871156","0",\N
"2068628594","59651660","0",\N
"2068628594","85334566","0",\N
"2092414635","143918589","0",\N
"2092414635","1518240354","0",\N
"2092414635","1587343623","0",\N
"2092414635","1596432671","0",\N
"2092414635","1612366852","0",\N
"2092414635","1967092672","0",\N
"2092414635","1974004783","0",\N
"2092414635","1980126189","0",\N
"2092414635","1980583203","0",\N
"2092414635","1981820048","0",\N
"2092414635","1984037412","0",\N
"2092414635","1986270971","0",\N
"2092414635","1991670833","0",\N
"2092414635","1996953123","0",\N
"2092414635","1997335181","0",\N
"2092414635","2006887122","0",\N
"2092414635","2008918941","0",\N
"2092414635","2010123231","0",\N
"2092414635","2017549279","0",\N
"2092414635","2018165958","0",\N
"2092414635","2019661831","0",\N
"2092414635","2041505992","0",\N
"2092414635","2044467848","0",\N
"2092414635","2048665713","0",\N
"2092414635","2066693473","0",\N
"2092414635","2070875632","0",\N
"2092414635","2071382955","0",\N
"2092414635","2073349290","0",\N
"2092414635","2073417185","0",\N
"2092414635","2076111670","0",\N
"2092414635","2090251043","0",\N
"2092414635","2090266480","0",\N
"2092414635","2093744647","0",\N
"2092414635","2097552874","0",\N
"2092414635","2099043863","0",\N
"2092414635","2102150387","0",\N
"2092414635","2103099897","0",\N
"2092414635","2103299831","0",\N
"2092414635","2104719746","0",\N
"2092414635","2110751729","0",\N
"2092414635","2113392571","0",\N
"2092414635","2113508301","0",\N
"2092414635","2115571999","0",\N
"2092414635","2121689178","0",\N
"2092414635","2127396574","0",\N
"2092414635","2144237232","0",\N
"2092414635","2160322351","0",\N
"2092414635","2165385958","0",\N
"2092414635","2171739801","0",\N
"2092414635","2226825011","0",\N
"2092414635","4191202","0",\N
"2092414635","578389471","0",\N
"2092414635","636670260","0",\N
"2092595282","1506432079","0",\N
"2092595282","1506672383","0",\N
"2092595282","1513139631","0",\N
"2092595282","1516443426","0",\N
"2092595282","1557037912","0",\N
"2092595282","1569189826","0",\N
"2092595282","1861589783","0",\N
"2092595282","1907619379","0",\N
"2092595282","1965417368","0",\N
"2092595282","1967495926","0",\N
"2092595282","1968806673","0",\N
"2092595282","1976514586","0",\N
"2092595282","1977627101","0",\N
"2092595282","1980947121","0",\N
"2092595282","1987640094","0",\N
"2092595282","1992880712","0",\N
"2092595282","1997142049","0",\N
"2092595282","1999209109","0",\N
"2092595282","2001255626","0",\N
"2092595282","2006168445","0",\N
"2092595282","2008023135","0",\N
"2092595282","2016862762","0",\N
"2092595282","2019207321","0",\N
"2092595282","2021538898","0",\N
"2092595282","2023944948","0",\N
"2092595282","2026687073","0",\N
"2092595282","2028414733","0",\N
"2092595282","2032002401","0",\N
"2092595282","2032180816","0",\N
"2092595282","2036233984","0",\N
"2092595282","2039509301","0",\N
"2092595282","2046026530","0",\N
"2092595282","2047536291","0",\N
"2092595282","2049404550","0",\N
"2092595282","2053675238","0",\N
"2092595282","2058417559","0",\N
"2092595282","2062140782","0",\N
"2092595282","2076143961","0",\N
"2092595282","2079325629","0",\N
"2092595282","2079406519","0",\N
"2092595282","2084175761","0",\N
"2092595282","2084998730","0",\N
"2092595282","2085496778","0",\N
"2092595282","2097538524","0",\N
"2092595282","2119209187","0",\N
"2092595282","2123594576","0",\N
"2092595282","2123696440","0",\N
"2092595282","2124776405","0",\N
"2092595282","2126727900","0",\N
"2092595282","2129645442","0",\N
"2092595282","2137820384","0",\N
"2092595282","2148138104","0",\N
"2092595282","2159658699","0",\N
"2092595282","2171166043","0",\N
"2092595282","2177895527","0",\N
"2092595282","2633139931","0",\N
"2092595282","2764769393","0",\N
"2092595282","2908471473","0",\N
"2094878339","130691989","0",\N
"2094878339","1967797224","0",\N
"2094878339","1969821593","0",\N
"2094878339","1971328835","0",\N
"2094878339","1971728962","0",\N
"2094878339","1975652117","1",\N
"2094878339","1979587412","0",\N
"2094878339","1981070870","0",\N
"2094878339","1983244020","0",\N
"2094878339","1983937434","0",\N
"2094878339","1984127835","0",\N
"2094878339","1985676864","0",\N
"2094878339","1988078834","0",\N
"2094878339","1989596618","0",\N
"2094878339","1990974785","0",\N
"2094878339","1993320793","0",\N
"2094878339","1994314091","0",\N
"2094878339","1994638489","0",\N
"2094878339","1995321354","0",\N
"2094878339","1995580950","0",\N
"2094878339","2002335865","0",\N
"2094878339","2003758301","0",\N
"2094878339","2004106613","0",\N
"2094878339","2004635908","0",\N
"2094878339","2004956772","0",\N
"2094878339","2005273453","0",\N
"2094878339","2008724376","0",\N
"2094878339","2016192053","0",\N
"2094878339","2018655012","0",\N
"2094878339","2022101685","1",\N
"2094878339","2026921572","0",\N
"2094878339","2027850765","0",\N
"2094878339","2028457368","0",\N
"2094878339","2030370699","0",\N
"2094878339","2033668862","0",\N
"2094878339","2038477431","0",\N
"2094878339","2044146010","0",\N
"2094878339","2044180156","0",\N
"2094878339","2048262184","0",\N
"2094878339","2053099194","0",\N
"2094878339","2053534596","0",\N
"2094878339","2053787580","0",\N
"2094878339","2056028207","0",\N
"2094878339","2057309147","0",\N
"2094878339","2058082931","0",\N
"2094878339","2066895189","0",\N
"2094878339","2072822487","0",\N
"2094878339","2074253278","0",\N
"2094878339","2076124249","0",\N
"2094878339","2079693158","0",\N
"2094878339","2081626830","0",\N
"2094878339","2085492941","0",\N
"2094878339","2086561881","0",\N
"2094878339","2093070358","0",\N
"2094878339","2103739795","0",\N
"2094878339","2106177712","0",\N
"2094878339","2109701684","0",\N
"2094878339","2117519596","0",\N
"2094878339","2132312908","0",\N
"2094878339","2149142356","0",\N
"2094878339","2149776298","0",\N
"2094878339","2150700099","0",\N
"2094878339","2155455494","0",\N
"2094878339","2157719394","0",\N
"2094878339","2327442942","0",\N
"2095519076","107320441","0",\N
"2095519076","1583981513","0",\N
"2095519076","1967056914","0",\N
"2095519076","1987347924","0",\N
"2095519076","1990865728","0",\N
"2095519076","1992691743","0",\N
"2095519076","2000172809","0",\N
"2095519076","2001244983","0",\N
"2095519076","2004698524","0",\N
"2095519076","2021506989","0",\N
"2095519076","2024470531","0",\N
"2095519076","2027847503","0",\N
"2095519076","2030335045","0",\N
"2095519076","2035629079","0",\N
"2095519076","2036062252","0",\N
"2095519076","2038889233","0",\N
"2095519076","2042102899","0",\N
"2095519076","2043730973","0",\N
"2095519076","2046910155","0",\N
"2095519076","2053678255","0",\N
"2095519076","2054470241","0",\N
"2095519076","2059536960","0",\N
"2095519076","2067833990","0",\N
"2095519076","2069289046","0",\N
"2095519076","2080151622","0",\N
"2095519076","2082571198","0",\N
"2095519076","2085599369","0",\N
"2095519076","2086390519","0",\N
"2095519076","2086955682","0",\N
"2095519076","2093720461","0",\N
"2095519076","2100662509","0",\N
"2095519076","2120051256","1",\N
"2095519076","2121057544","0",\N
"2095519076","2134982005","0",\N
"2095519076","2168936936","0",\N
"2095519076","2495431980","0",\N
"2095519076","2528551953","0",\N
"2095519076","2912565176","0",\N
"2095519076","2987320177","0",\N
"2095519076","30814344","0",\N
"2120051256","111796927","0",\N
"2120051256","1480399083","0",\N
"2120051256","1967056914","0",\N
"2120051256","1994997349","0",\N
"2120051256","2053678255","0",\N
"2120051256","2078538587","0",\N
"2120051256","2081825717","0",\N
"2120051256","2096768134","0",\N
"2120051256","2100662509","0",\N
"2120051256","2496352033","0",\N
"2120051256","2912565176","0",\N
"2134010515","1559875088","0",\N
"2134010515","1590280087","0",\N
"2134010515","1608774414","0",\N
"2134010515","1970790016","0",\N
"2134010515","1980127858","0",\N
"2134010515","1980997475","0",\N
"2134010515","1981405911","0",\N
"2134010515","1982039177","0",\N
"2134010515","1986084950","0",\N
"2134010515","1986533459","0",\N
"2134010515","1996727605","0",\N
"2134010515","1997992086","0",\N
"2134010515","2000226893","0",\N
"2134010515","2004698524","0",\N
"2134010515","2008822184","1",\N
"2134010515","2024133475","0",\N
"2134010515","2025527840","0",\N
"2134010515","2031523480","0",\N
"2134010515","2034339643","0",\N
"2134010515","2034387309","0",\N
"2134010515","2037077419","1",\N
"2134010515","2041085006","0",\N
"2134010515","2043730973","0",\N
"2134010515","2047053036","0",\N
"2134010515","2049909208","0",\N
"2134010515","2050323620","0",\N
"2134010515","2053750940","0",\N
"2134010515","2054866547","0",\N
"2134010515","2055976823","0",\N
"2134010515","2058696023","0",\N
"2134010515","2059536960","0",\N
"2134010515","2063769121","0",\N
"2134010515","2073606699","0",\N
"2134010515","2074045205","0",\N
"2134010515","2077791698","0",\N
"2134010515","2078286011","0",\N
"2134010515","2081124959","0",\N
"2134010515","2084158450","0",\N
"2134010515","2086088289","0",\N
"2134010515","2089909281","0",\N
"2134010515","2094688336","0",\N
"2134010515","2107492341","0",\N
"2134010515","2107845079","0",\N
"2134010515","2110063089","0",\N
"2134010515","2113392571","0",\N
"2134010515","2116080612","0",\N
"2134010515","2123238067","0",\N
"2134010515","2128094884","0",\N
"2134010515","2140452398","0",\N
"2134010515","2143286545","0",\N
"2134010515","2143311250","0",\N
"2134010515","2146612430","0",\N
"2134010515","2163169389","0",\N
"2134010515","2168936936","0",\N
"2134010515","2400444852","0",\N
"2134010515","2912565176","0",\N
"2134010515","404394673","0",\N
"2134010515","588955281","0",\N
"2134010515","86242020","0",\N
"2232209423","1898259180","0",\N
"2232209423","194786220","0",\N
"2232209423","1967098099","0",\N
"2232209423","1970640105","0",\N
"2232209423","1987347924","0",\N
"2232209423","1990759200","0",\N
"2232209423","2000172809","0",\N
"2232209423","2004698524","0",\N
"2232209423","2013532250","0",\N
"2232209423","2021506989","0",\N
"2232209423","2032873298","0",\N
"2232209423","2036062252","0",\N
"2232209423","2043346692","0",\N
"2232209423","2059536960","0",\N
"2232209423","2065547202","0",\N
"2232209423","2067833990","0",\N
"2232209423","2068188900","0",\N
"2232209423","2069289046","0",\N
"2232209423","2081500376","0",\N
"2232209423","2085599369","0",\N
"2232209423","2086955682","0",\N
"2232209423","2168936936","0",\N
"2232209423","2912565176","0",\N
"2342877758","1502151399","0",\N
"2342877758","1539019422","0",\N
"2342877758","1578960547","0",\N
"2342877758","161068908","0",\N
"2342877758","1637071264","0",\N
"2342877758","1969821593","0",\N
"2342877758","1973278173","0",\N
"2342877758","1975442895","0",\N
"2342877758","1978062397","0",\N
"2342877758","1979454583","0",\N
"2342877758","1980854140","0",\N
"2342877758","1988843277","0",\N
"2342877758","1996054841","0",\N
"2342877758","1998727435","0",\N
"2342877758","2001573881","0",\N
"2342877758","2005336514","0",\N
"2342877758","2012430137","0",\N
"2342877758","2014984059","0",\N
"2342877758","2020679445","1",\N
"2342877758","2038638323","0",\N
"2342877758","2044913203","0",\N
"2342877758","2046373367","0",\N
"2342877758","2050447924","0",\N
"2342877758","2055879680","0",\N
"2342877758","2065043952","0",\N
"2342877758","2065303264","0",\N
"2342877758","2065471531","0",\N
"2342877758","2070390781","0",\N
"2342877758","2075348160","0",\N
"2342877758","2076356544","0",\N
"2342877758","2078489066","0",\N
"2342877758","2079058468","0",\N
"2342877758","2083917711","0",\N
"2342877758","2087676477","0",\N
"2342877758","2089254472","0",\N
"2342877758","2089786637","0",\N
"2342877758","2091241831","0",\N
"2342877758","2093805689","0",\N
"2342877758","2094688336","0",\N
"2342877758","2107264110","0",\N
"2342877758","2110078568","0",\N
"2342877758","2112959280","0",\N
"2342877758","2131390763","0",\N
"2342877758","2139487545","0",\N
"2342877758","2150734509","0",\N
"2342877758","2185786173","0",\N
"2342877758","2327408831","0",\N
"2342877758","2340277300","0",\N
"2342877758","584819388","0",\N
"2342877758","70021792","0",\N
"2479490066","1971541086","0",\N
"2479490066","1980564456","0",\N
"2479490066","1989365519","0",\N
"2479490066","1991638061","1",\N
"2479490066","2000261326","0",\N
"2479490066","2003025552","0",\N
"2479490066","2003580451","0",\N
"2479490066","2003992246","0",\N
"2479490066","2011440343","0",\N
"2479490066","2036561909","0",\N
"2479490066","2050262998","0",\N
"2479490066","2050440799","0",\N
"2479490066","2055520931","0",\N
"2479490066","2059207720","0",\N
"2479490066","2068069653","0",\N
"2479490066","2131390763","0",\N
"2479490066","2151837684","0",\N
"2479490066","2752128027","0",\N
"2484106217","1493518289","0",\N
"2484106217","1564340753","0",\N
"2484106217","1575842192","0",\N
"2484106217","1589037681","0",\N
"2484106217","1979212297","0",\N
"2484106217","1981061262","0",\N
"2484106217","1990411649","0",\N
"2484106217","1992557469","0",\N
"2484106217","2019950953","0",\N
"2484106217","2038190934","0",\N
"2484106217","2104765494","0",\N
"2484106217","2115242586","0",\N
"2484106217","2125836384","0",\N
"2484106217","2146223645","0",\N
"2484106217","2171270694","0",\N
"2484106217","2264544574","0",\N
"2484106217","2428149162","0",\N
"2484106217","2496808507","0",\N
"2484106217","2623604121","0",\N
"2484106217","2661046333","0",\N
"2484106217","51237492","0",\N
"2484106217","561419532","0",\N
"2484106217","611311239","0",\N
"2484106217","611697073","0",\N
"2484106217","628979136","0",\N
"2503702355","117115157","0",\N
"2503702355","1968091565","0",\N
"2503702355","1973479732","0",\N
"2503702355","2031188486","0",\N
"2503702355","2060319835","0",\N
"2503702355","2075187003","1",\N
"2503702355","2122063318","0",\N
"2503702355","2157202423","0",\N
"2503702355","2601003474","1",\N
"2571304362","100327610","0",\N
"2571304362","1506610059","0",\N
"2571304362","1601081659","0",\N
"2571304362","1731517237","0",\N
"2571304362","1973414686","0",\N
"2571304362","1977976230","0",\N
"2571304362","1997956957","0",\N
"2571304362","2008792259","0",\N
"2571304362","2035518103","0",\N
"2571304362","2047422707","0",\N
"2571304362","2073194980","0",\N
"2571304362","2083079739","0",\N
"2571304362","2087856140","0",\N
"2571304362","2089513618","0",\N
"2571304362","2091706302","0",\N
"2571304362","2095540386","0",\N
"2571304362","2109216884","0",\N
"2571304362","2117805572","0",\N
"2571304362","2122108146","0",\N
"2571304362","2122643460","0",\N
"2571304362","2123407478","0",\N
"2571304362","2128090816","0",\N
"2571304362","2136768128","0",\N
"2571304362","2148032167","0",\N
"2571304362","2157443709","0",\N
"2571304362","2171589479","0",\N
"2571304362","2171890636","0",\N
"2571304362","2293564461","0",\N
"2571304362","304140514","0",\N
"2571304362","587747881","0",\N
"2599238723","1167383870","1",\N
"2599238723","1504137826","0",\N
"2599238723","1906409805","0",\N
"2599238723","1966442943","0",\N
"2599238723","1966790966","0",\N
"2599238723","1968103499","0",\N
"2599238723","1971076337","0",\N
"2599238723","1972591816","0",\N
"2599238723","1976755248","0",\N
"2599238723","1980564456","0",\N
"2599238723","1999747502","0",\N
"2599238723","2002808981","0",\N
"2599238723","2023075827","0",\N
"2599238723","2024444625","0",\N
"2599238723","2032646517","1",\N
"2599238723","2041240839","0",\N
"2599238723","2045427376","0",\N
"2599238723","2048412523","0",\N
"2599238723","2060986412","0",\N
"2599238723","2065262720","0",\N
"2599238723","2087139946","0",\N
"2599238723","2103748559","0",\N
"2599238723","2114454231","0",\N
"2599238723","2150701149","0",\N
"2599238723","2158055408","0",\N
"2599238723","2158598447","0",\N
"2599238723","2178504905","0",\N
"2599238723","2178918608","0",\N
"2599238723","2226144659","0",\N
"2599238723","2259660946","1",\N
"2599238723","2267248877","0",\N
"2599238723","2302915988","0",\N
"2599238723","2343116545","0",\N
"2599238723","2544152002","0",\N
"2599238723","843545579","0",\N
"2601003474","1577401309","0",\N
"2601003474","1659593174","0",\N
"2601003474","1972048626","0",\N
"2601003474","1972402852","0",\N
"2601003474","1974535125","0",\N
"2601003474","2011392455","0",\N
"2601003474","2012561498","0",\N
"2601003474","2031188486","0",\N
"2601003474","2040340467","0",\N
"2601003474","2060142978","0",\N
"2601003474","2088473659","0",\N
"2601003474","2091076483","0",\N
"2601003474","2122366632","0",\N
"2601003474","2236606055","0",\N
"2601003474","2289066797","0",\N
"2603290394","1965690030","0",\N
"2603290394","1967092672","0",\N
"2603290394","1967212116","0",\N
"2603290394","1982568292","0",\N
"2603290394","1984389647","0",\N
"2603290394","1987347924","0",\N
"2603290394","2000172809","0",\N
"2603290394","2001244983","0",\N
"2603290394","2003512370","0",\N
"2603290394","2004698524","0",\N
"2603290394","2021506989","0",\N
"2603290394","2032889926","0",\N
"2603290394","2054470241","0",\N
"2603290394","2059536960","0",\N
"2603290394","2059999216","0",\N
"2603290394","2065752879","0",\N
"2603290394","2065875881","0",\N
"2603290394","2075904323","0",\N
"2603290394","2080151622","0",\N
"2603290394","2103533373","0",\N
"2603290394","2112959280","0",\N
"2603290394","2116859162","0",\N
"2603290394","2130773087","0",\N
"2603290394","2146431939","0",\N
"2603290394","2150734509","0",\N
"2603290394","2154370737","0",\N
"2603290394","2606994024","0",\N
"2604951413","152569421","0",\N
"2604951413","1553509686","1",\N
"2604951413","1858601427","1",\N
"2604951413","1963533105","0",\N
"2604951413","1965954778","0",\N
"2604951413","1970584927","1",\N
"2604951413","1971799773","0",\N
"2604951413","1978548453","0",\N
"2604951413","1990316003","0",\N
"2604951413","1990406568","0",\N
"2604951413","1993866621","0",\N
"2604951413","1994086916","0",\N
"2604951413","1994458988","0",\N
"2604951413","1996846286","0",\N
"2604951413","2008470543","0",\N
"2604951413","2008649586","0",\N
"2604951413","2011590895","0",\N
"2604951413","2015164116","0",\N
"2604951413","2038190934","0",\N
"2604951413","2055291147","0",\N
"2604951413","2056597320","0",\N
"2604951413","2064451093","1",\N
"2604951413","2075527120","0",\N
"2604951413","2082577065","0",\N
"2604951413","2083210053","0",\N
"2604951413","2122203927","0",\N
"2604951413","2157041604","0",\N
"2604951413","2170382881","0",\N
"2604951413","2255756931","1",\N
"2604951413","2280687644","0",\N
"2604951413","2400621746","0",\N
"2604951413","2738600808","0",\N
"2604951413","2998702580","0",\N
"2655124276","1464919260","0",\N
"2655124276","1523761979","0",\N
"2655124276","1539687987","0",\N
"2655124276","1570921136","0",\N
"2655124276","1595038890","0",\N
"2655124276","1751793533","0",\N
"2655124276","1964092501","0",\N
"2655124276","1968165569","0",\N
"2655124276","1969007014","0",\N
"2655124276","1974286479","0",\N
"2655124276","1980011684","0",\N
"2655124276","1980564456","0",\N
"2655124276","1985433588","0",\N
"2655124276","1992691743","0",\N
"2655124276","1997359038","0",\N
"2655124276","2000745937","0",\N
"2655124276","2001738721","0",\N
"2655124276","2001799402","0",\N
"2655124276","2004698524","0",\N
"2655124276","2007273555","0",\N
"2655124276","2010858721","0",\N
"2655124276","2015308705","0",\N
"2655124276","2032967833","0",\N
"2655124276","2042899570","0",\N
"2655124276","2046877197","0",\N
"2655124276","2059288723","0",\N
"2655124276","2067472607","0",\N
"2655124276","2070905255","0",\N
"2655124276","2074537807","0",\N
"2655124276","2075916145","0",\N
"2655124276","2076452041","0",\N
"2655124276","2081810232","0",\N
"2655124276","2083530646","0",\N
"2655124276","2085724863","0",\N
"2655124276","2094519759","0",\N
"2655124276","2129763896","0",\N
"2655124276","2156040192","0",\N
"2655124276","2168936936","0",\N
"2655124276","2195059900","0",\N
"2655124276","2202694414","0",\N
"2655124276","2259948456","0",\N
"2655124276","2341823303","0",\N
"2655124276","2470288096","0",\N
"2655124276","2512479836","0",\N
"2655124276","2513443769","0",\N
"2655124276","2538530104","0",\N
"2655124276","2548333591","0",\N
"2655124276","2564996866","0",\N
"2655124276","2578951653","0",\N
"2655124276","2579011867","0",\N
"2655124276","2584188806","0",\N
"2655124276","2590896821","0",\N
"2655124276","2604140297","0",\N
"2655124276","2735511504","0",\N
"2655124276","2765872651","0",\N
"2655124276","2912565176","0",\N
"2655124276","606498814","0",\N
"2768392855","1495684310","0",\N
"2768392855","1544505421","0",\N
"2768392855","1562402498","0",\N
"2768392855","1577333213","0",\N
"2768392855","1668569279","0",\N
"2768392855","1819424868","0",\N
"2768392855","1829951598","0",\N
"2768392855","1971449183","0",\N
"2768392855","1972494505","0",\N
"2768392855","1975927545","0",\N
"2768392855","1977955720","0",\N
"2768392855","1978095607","0",\N
"2768392855","1980564456","0",\N
"2768392855","1982619318","0",\N
"2768392855","1985415527","0",\N
"2768392855","1985858614","0",\N
"2768392855","1992176519","0",\N
"2768392855","1998539124","0",\N
"2768392855","2001250996","0",\N
"2768392855","2007960405","0",\N
"2768392855","2018667478","0",\N
"2768392855","2027859047","0",\N
"2768392855","2032711326","0",\N
"2768392855","2039615429","0",\N
"2768392855","2050978934","0",\N
"2768392855","2073428124","0",\N
"2768392855","2079457935","0",\N
"2768392855","2099748784","0",\N
"2768392855","2115623791","0",\N
"2768392855","2120191631","0",\N
"2768392855","2137413705","0",\N
"2768392855","2140150805","0",\N
"2768392855","2152662975","0",\N
"2768392855","2188257212","0",\N
"2768392855","2278136596","0",\N
"2768392855","2292780521","0",\N
"2768392855","2344132841","0",\N
"2768392855","2346494717","0",\N
"2768392855","2404037591","0",\N
"2768392855","2472742448","0",\N
"2768392855","2477128123","0",\N
"2768392855","2545569938","0",\N
"2768392855","2547234158","0",\N
"2768392855","2574507249","0",\N
"2768392855","2587709158","0",\N
"2768392855","2613997098","0",\N
"2768392855","2614001176","0",\N
"2768392855","2617083947","0",\N
"2768392855","2933406927","0",\N
"2768392855","2994586405","0",\N
"2885799613","121142322","0",\N
"2885799613","1832641416","0",\N
"2885799613","1963376751","0",\N
"2885799613","1963514421","0",\N
"2885799613","1967550214","0",\N
"2885799613","1969692967","0",\N
"2885799613","1969821593","0",\N
"2885799613","1973309396","0",\N
"2885799613","1976605125","0",\N
"2885799613","1977993961","0",\N
"2885799613","1986230455","0",\N
"2885799613","1988566685","0",\N
"2885799613","1990601716","0",\N
"2885799613","1992791653","0",\N
"2885799613","1992794079","0",\N
"2885799613","1998489527","0",\N
"2885799613","2000737234","0",\N
"2885799613","2003738589","0",\N
"2885799613","2011072533","1",\N
"2885799613","2013377700","0",\N
"2885799613","2014582883","0",\N
"2885799613","2014984059","0",\N
"2885799613","2017460429","0",\N
"2885799613","2017927362","0",\N
"2885799613","2018021847","0",\N
"2885799613","2024878953","0",\N
"2885799613","2026450440","0",\N
"2885799613","2031144991","0",\N
"2885799613","2033170335","0",\N
"2885799613","2035004690","0",\N
"2885799613","2040500502","0",\N
"2885799613","2042510122","0",\N
"2885799613","2044803750","0",\N
"2885799613","2045800230","0",\N
"2885799613","2048539263","0",\N
"2885799613","2051638083","0",\N
"2885799613","2052423160","0",\N
"2885799613","2057242481","0",\N
"2885799613","2057716807","0",\N
"2885799613","2059424854","0",\N
"2885799613","2061993807","0",\N
"2885799613","2063202994","0",\N
"2885799613","2065303264","0",\N
"2885799613","2069807534","0",\N
"2885799613","2070649170","0",\N
"2885799613","2073051278","0",\N
"2885799613","2076038946","0",\N
"2885799613","2080398619","0",\N
"2885799613","2080802424","0",\N
"2885799613","2083518717","0",\N
"2885799613","2084865841","0",\N
"2885799613","2085997623","0",\N
"2885799613","2089254472","0",\N
"2885799613","2092606478","0",\N
"2885799613","2096875360","0",\N
"2885799613","2118064722","0",\N
"2885799613","2126397993","0",\N
"2885799613","2137828130","0",\N
"2885799613","2153784765","0",\N
"2885799613","2157041604","0",\N
"2885799613","2171360034","0",\N
"2885799613","2297773075","0",\N
"2885799613","2342877758","1",\N
"2885799613","2344573320","0",\N
"2885799613","2403747703","0",\N
"2885799613","2517997486","0",\N
"2885799613","2519921075","0",\N
"2885799613","2536001886","0",\N
"2885799613","2537158668","0",\N
"2885799613","2596341952","0",\N
"2885799613","2620974436","0",\N
"2885799613","2735566545","0",\N
"2885799613","948640695","0",\N
"2898895018","114984725","0",\N
"2898895018","1170969516","0",\N
"2898895018","1543403517","0",\N
"2898895018","1748537427","0",\N
"2898895018","1764808289","0",\N
"2898895018","1852059975","0",\N
"2898895018","1964462849","0",\N
"2898895018","1965547616","0",\N
"2898895018","1977923684","0",\N
"2898895018","1978825226","0",\N
"2898895018","1988464112","0",\N
"2898895018","1989675337","0",\N
"2898895018","1990492762","0",\N
"2898895018","2045725378","0",\N
"2898895018","2051951167","0",\N
"2898895018","2055394893","0",\N
"2898895018","2056645375","0",\N
"2898895018","2061229161","0",\N
"2898895018","2062612670","0",\N
"2898895018","2067960467","0",\N
"2898895018","2070926517","0",\N
"2898895018","2074045205","0",\N
"2898895018","2074315456","0",\N
"2898895018","2100363151","0",\N
"2898895018","2113508301","0",\N
"2898895018","2121083696","0",\N
"2898895018","2161447725","0",\N
"2898895018","2165681141","0",\N
"2898895018","2175006126","0",\N
"2898895018","2183939570","0",\N
"2898895018","2207189798","0",\N
"2898895018","2294639679","0",\N
"2898895018","2312450941","0",\N
"2898895018","2312663874","0",\N
"2898895018","2314032705","0",\N
"2898895018","2324929133","0",\N
"2898895018","2336928458","0",\N
"2898895018","2342485655","0",\N
"2898895018","2342798852","0",\N
"2898895018","2343404084","0",\N
"2898895018","2395518122","0",\N
"2898895018","2407045645","0",\N
"2898895018","2465558678","0",\N
"2898895018","2468649904","0",\N
"2898895018","2474731872","0",\N
"2898895018","2507521013","0",\N
"2898895018","2511386119","0",\N
"2898895018","2551991939","0",\N
"2898895018","2572448047","0",\N
"2898895018","2577376949","0",\N
"2898895018","2581590508","0",\N
"2898895018","2591668333","0",\N
"2898895018","2605474162","0",\N
"2898895018","2625061235","0",\N
"2898895018","2894263254","0",\N
"2898895018","2908378254","0",\N
"2898895018","2912565176","0",\N
"2898895018","297774234","0",\N
"2898895018","38708963","0",\N
"2899131782","1523761979","0",\N
"2899131782","1570921136","0",\N
"2899131782","1595038890","0",\N
"2899131782","1751793533","0",\N
"2899131782","1977923684","0",\N
"2899131782","2000745937","0",\N
"2899131782","2007273555","0",\N
"2899131782","2011072533","1",\N
"2899131782","2017549279","0",\N
"2899131782","2041153937","0",\N
"2899131782","2074315456","0",\N
"2899131782","2076452041","0",\N
"2899131782","2081319887","0",\N
"2899131782","2115132505","0",\N
"2899131782","2127331687","0",\N
"2899131782","2129763896","0",\N
"2899131782","2156040192","0",\N
"2899131782","2171739801","0",\N
"2899131782","2230331579","0",\N
"2899131782","2347126095","0",\N
"2899131782","2568673195","0",\N
"2899131782","2606134207","0",\N
"2899131782","2611523600","0",\N
"2899131782","2615277761","0",\N
"2899131782","2616657980","0",\N
"2899131782","2623586212","0",\N
"2899131782","2655124276","1",\N
"2899131782","2736660739","0",\N
"2899131782","2736743208","0",\N
"2899131782","2739076664","0",\N
"2899131782","2739298693","0",\N
"2899131782","2740406031","0",\N
"2899131782","2742141512","0",\N
"2899131782","2742496915","0",\N
"2899131782","2742737862","0",\N
"2899131782","2745622724","0",\N
"2899131782","2746940821","0",\N
"2899131782","2750393508","0",\N
"2899131782","2759908812","0",\N
"2899131782","2766447860","0",\N
"2899131782","2767330134","0",\N
"2899131782","2767809970","0",\N
"2899131782","2773049164","0",\N
"2899131782","2773860635","0",\N
"2899131782","2777503589","0",\N
"2899131782","2789759202","0",\N
"2899131782","2793857475","0",\N
"2899131782","2899283566","0",\N
"2899131782","2912565176","0",\N
"2899131782","2950495474","0",\N
"2899131782","3010883805","0",\N
"2899131782","578389471","0",\N
"2899131782","58991120","0",\N
"2899131782","592197399","0",\N
"2902243749","1013659066","0",\N
"2902243749","133040239","0",\N
"2902243749","1546067212","0",\N
"2902243749","1661210704","0",\N
"2902243749","1748537427","0",\N
"2902243749","1798353895","0",\N
"2902243749","1923893604","0",\N
"2902243749","194786220","0",\N
"2902243749","1961144927","0",\N
"2902243749","1968622211","0",\N
"2902243749","1969471618","0",\N
"2902243749","1970079940","0",\N
"2902243749","1975652117","1",\N
"2902243749","1975898206","0",\N
"2902243749","1976763354","0",\N
"2902243749","1978254606","0",\N
"2902243749","1981339405","0",\N
"2902243749","1983170111","0",\N
"2902243749","1983477871","0",\N
"2902243749","1987013150","0",\N
"2902243749","1987347924","0",\N
"2902243749","1987606955","0",\N
"2902243749","1990974785","0",\N
"2902243749","1991057589","0",\N
"2902243749","1995739144","0",\N
"2902243749","1999582351","0",\N
"2902243749","2004445021","0",\N
"2902243749","2004698524","0",\N
"2902243749","2004956772","0",\N
"2902243749","2007041178","0",\N
"2902243749","2008724376","0",\N
"2902243749","2009682549","1",\N
"2902243749","2010075101","0",\N
"2902243749","2014089538","0",\N
"2902243749","2022101685","0",\N
"2902243749","2026470064","0",\N
"2902243749","2032199835","1",\N
"2902243749","2032445559","0",\N
"2902243749","2034545314","0",\N
"2902243749","2037475571","0",\N
"2902243749","2041229605","0",\N
"2902243749","2042102899","0",\N
"2902243749","2047661958","0",\N
"2902243749","2049760762","0",\N
"2902243749","2059536960","0",\N
"2902243749","2060717608","0",\N
"2902243749","2065109455","0",\N
"2902243749","2070103364","0",\N
"2902243749","2072844030","0",\N
"2902243749","2073323853","0",\N
"2902243749","2074722477","0",\N
"2902243749","2081491266","0",\N
"2902243749","2081601039","0",\N
"2902243749","2082130554","0",\N
"2902243749","2082375298","0",\N
"2902243749","2091947888","0",\N
"2902243749","2093070358","0",\N
"2902243749","2094878339","1",\N
"2902243749","2112664468","0",\N
"2902243749","2114371948","0",\N
"2902243749","2116611922","0",\N
"2902243749","2131740856","0",\N
"2902243749","2143695807","0",\N
"2902243749","2147370998","0",\N
"2902243749","2159244245","0",\N
"2902243749","2164574081","0",\N
"2902243749","2168936936","0",\N
"2902243749","2171366148","0",\N
"2902243749","2172562711","0",\N
"2902243749","2182596732","0",\N
"2902243749","2290199862","0",\N
"2902243749","2362084186","0",\N
"2902243749","2398951312","0",\N
"2902243749","2404740153","0",\N
"2902243749","2430691565","0",\N
"2902243749","2474524207","0",\N
"2902243749","2487775320","0",\N
"2902243749","2496762210","0",\N
"2902243749","2506768821","0",\N
"2902243749","2512982769","0",\N
"2902243749","2533996412","0",\N
"2902243749","2564274127","0",\N
"2902243749","2767097575","0",\N
"2902243749","2973218851","0",\N
"2902767540","1528458083","0",\N
"2902767540","1590638423","0",\N
"2902767540","1668569279","0",\N
"2902767540","1788382764","0",\N
"2902767540","1829951598","0",\N
"2902767540","1830792952","0",\N
"2902767540","1969179335","0",\N
"2902767540","1976755248","0",\N
"2902767540","1978300483","0",\N
"2902767540","1980564456","0",\N
"2902767540","1986686276","0",\N
"2902767540","1987347924","0",\N
"2902767540","1987381134","0",\N
"2902767540","1988550469","0",\N
"2902767540","1989944970","0",\N
"2902767540","2004698524","0",\N
"2902767540","2005967553","0",\N
"2902767540","2008235468","0",\N
"2902767540","2011072533","1",\N
"2902767540","2013932252","0",\N
"2902767540","2017507437","0",\N
"2902767540","2017664994","0",\N
"2902767540","2034960640","0",\N
"2902767540","2035771071","0",\N
"2902767540","2035948812","0",\N
"2902767540","2038638323","0",\N
"2902767540","2052534675","0",\N
"2902767540","2053784147","0",\N
"2902767540","2054056739","0",\N
"2902767540","2054470241","0",\N
"2902767540","2057636328","0",\N
"2902767540","2058821902","0",\N
"2902767540","2060138974","0",\N
"2902767540","2062704001","0",\N
"2902767540","2066652531","0",\N
"2902767540","2069864123","0",\N
"2902767540","2070626890","0",\N
"2902767540","2071927686","0",\N
"2902767540","2078220083","0",\N
"2902767540","2078620473","0",\N
"2902767540","2079457935","0",\N
"2902767540","2081331155","0",\N
"2902767540","2084006633","0",\N
"2902767540","2084552350","0",\N
"2902767540","2093070358","0",\N
"2902767540","2097742402","0",\N
"2902767540","2104077967","0",\N
"2902767540","2120842468","0",\N
"2902767540","2125843991","0",\N
"2902767540","2131390763","0",\N
"2902767540","2131490494","0",\N
"2902767540","2137450455","0",\N
"2902767540","2144798659","0",\N
"2902767540","2145895461","0",\N
"2902767540","2152215601","0",\N
"2902767540","2157041604","0",\N
"2902767540","2157579184","0",\N
"2902767540","2164214149","0",\N
"2902767540","2167331433","0",\N
"2902767540","2174250115","0",\N
"2902767540","2184989861","0",\N
"2902767540","2188032869","0",\N
"2902767540","2341764876","0",\N
"2902767540","2342877758","1",\N
"2902767540","2343846868","0",\N
"2902767540","2345854887","0",\N
"2902767540","2346604114","0",\N
"2902767540","2395938627","0",\N
"2902767540","2412590235","0",\N
"2902767540","2414387118","0",\N
"2902767540","2528793344","0",\N
"2902767540","2574242381","0",\N
"2902767540","2595406791","0",\N
"2902767540","2912565176","0",\N
"2902767540","628508670","0",\N
"2949074561","1500460861","0",\N
"2949074561","1668569279","0",\N
"2949074561","1974562332","0",\N
"2949074561","1977593506","0",\N
"2949074561","1980564456","0",\N
"2949074561","1987721207","0",\N
"2949074561","2004615188","0",\N
"2949074561","2011059623","0",\N
"2949074561","2050090718","0",\N
"2949074561","2052515307","0",\N
"2949074561","2053655527","0",\N
"2949074561","2060252995","0",\N
"2949074561","2065109455","0",\N
"2949074561","2067442047","0",\N
"2949074561","2079767857","0",\N
"2949074561","2086463568","0",\N
"2949074561","2096643759","0",\N
"2949074561","2100333602","0",\N
"2949074561","2164214149","0",\N
"2949074561","2178862991","0",\N
"2949074561","2178918608","0",\N
"2949074561","2184997100","0",\N
"2949074561","2196938587","0",\N
"2949074561","2203751463","0",\N
"2949074561","2252951467","0",\N
"2949074561","2257780880","0",\N
"2949074561","2292822555","0",\N
"2949074561","2298540165","0",\N
"2949074561","2345330116","0",\N
"2949074561","2346318195","0",\N
"2949074561","2404975228","0",\N
"2949074561","2414387118","0",\N
"2949074561","2461078970","0",\N
"2949074561","2464509256","0",\N
"2949074561","2483580372","0",\N
"2949074561","2488327324","0",\N
"2949074561","2509056837","0",\N
"2949074561","2549733045","0",\N
"2949074561","2558067512","0",\N
"2949074561","2571161325","0",\N
"2949074561","2584710045","0",\N
"2949074561","2593418740","0",\N
"2949074561","2595406791","0",\N
"2949074561","2746791943","0",\N
"2949074561","2753862205","0",\N
"2949074561","2773588687","0",\N
"2949074561","2784253469","0",\N
"2949074561","2784809004","0",\N
"2949074561","2801931701","0",\N
"2949074561","2886235317","0",\N
"2949074561","2891745665","0",\N
"2949074561","2892978442","0",\N
"2949074561","2899105331","0",\N
"2949074561","2902310949","0",\N
"2949074561","2903466805","0",\N
"3011727649","1528458083","0",\N
"3011727649","1593566392","0",\N
"3011727649","1963848153","0",\N
"3011727649","1977955720","0",\N
"3011727649","1980564456","0",\N
"3011727649","1983686086","0",\N
"3011727649","1998184794","0",\N
"3011727649","2004074837","0",\N
"3011727649","2009568361","0",\N
"3011727649","2010565631","0",\N
"3011727649","2018667478","0",\N
"3011727649","2025703191","0",\N
"3011727649","2032108610","0",\N
"3011727649","2032711326","0",\N
"3011727649","2039668492","0",\N
"3011727649","2053596247","0",\N
"3011727649","2054524765","0",\N
"3011727649","2079457935","0",\N
"3011727649","2083341222","0",\N
"3011727649","2087745828","0",\N
"3011727649","2114079560","0",\N
"3011727649","2131390763","0",\N
"3011727649","2144737654","0",\N
"3011727649","2156664009","0",\N
"3011727649","2157041604","0",\N
"3011727649","2793154033","0",\N
"3011727649","2798340136","0",\N
"3011727649","2893038853","0",\N
"3011727649","2903466805","0",\N
"3011727649","2910601293","0",\N
"3011727649","2912565176","0",\N
"3011727649","2954289684","0",\N
"3011727649","2963070869","0",\N
"73263655","1499784855","0",\N
"73263655","1546067212","0",\N
"73263655","1591990251","0",\N
"73263655","194786220","0",\N
"73263655","1963694134","0",\N
"73263655","1969140532","0",\N
"73263655","1970640105","0",\N
"73263655","1972890917","0",\N
"73263655","1993807874","0",\N
"73263655","1994997349","0",\N
"73263655","1996636297","0",\N
"73263655","1998855517","0",\N
"73263655","2002210528","0",\N
"73263655","2020587134","0",\N
"73263655","2033442273","0",\N
"73263655","2042102899","0",\N
"73263655","2059536960","0",\N
"73263655","2068188900","0",\N
"73263655","2086390519","0",\N
"73263655","2092634091","0",\N
"73263655","2103602933","0",\N
"73263655","2107390469","0",\N
"73263655","2125365521","0",\N
"73263655","2137029902","0",\N
"73263655","2143286545","0",\N
"73263655","2151739142","0",\N
"73263655","2154851465","0",\N
"73263655","218007243","0",\N
"73263655","2506768821","0",\N
"73263655","2912565176","0",\N
