"1520378624","1901071501","0.75"
"1901071501","1520378624","0.75"
"1520378624","2082169218","1.75"
"2082169218","1520378624","1.75"
"1901071501","2082169218","6.58333"
"2082169218","1901071501","6.58333"
"1520378624","1787690559","1"
"1787690559","1520378624","1"
"1520378624","1598404753","0.25"
"1598404753","1520378624","0.25"
"1520378624","2109305569","0.25"
"2109305569","1520378624","0.25"
"1598404753","1901071501","0.25"
"1901071501","1598404753","0.25"
"1598404753","2082169218","0.25"
"2082169218","1598404753","0.25"
"1598404753","2109305569","0.25"
"2109305569","1598404753","0.25"
"1901071501","2109305569","0.25"
"2109305569","1901071501","0.25"
"2082169218","2109305569","3.75"
"2109305569","2082169218","3.75"
"1520378624","2009225496","0.392857"
"2009225496","1520378624","0.392857"
"1520378624","2071693620","0.25"
"2071693620","1520378624","0.25"
"1520378624","2164761123","0.392857"
"2164761123","1520378624","0.392857"
"1520378624","2167160593","0.392857"
"2167160593","1520378624","0.392857"
"2009225496","2071693620","0.25"
"2071693620","2009225496","0.25"
"2009225496","2164761123","2.22619"
"2164761123","2009225496","2.22619"
"2009225496","2167160593","0.392857"
"2167160593","2009225496","0.392857"
"2071693620","2164761123","0.25"
"2164761123","2071693620","0.25"
"2071693620","2167160593","0.45"
"2167160593","2071693620","0.45"
"2164761123","2167160593","0.392857"
"2167160593","2164761123","0.392857"
"1520378624","1977552721","0.142857"
"1977552721","1520378624","0.142857"
"1520378624","2061069343","0.142857"
"2061069343","1520378624","0.142857"
"1520378624","2171536462","1.64286"
"2171536462","1520378624","1.64286"
"1520378624","2405532490","0.142857"
"2405532490","1520378624","0.142857"
"1977552721","2009225496","0.142857"
"2009225496","1977552721","0.142857"
"1977552721","2061069343","0.142857"
"2061069343","1977552721","0.142857"
"1977552721","2164761123","0.142857"
"2164761123","1977552721","0.142857"
"1977552721","2167160593","0.142857"
"2167160593","1977552721","0.142857"
"1977552721","2171536462","0.142857"
"2171536462","1977552721","0.142857"
"1977552721","2405532490","0.142857"
"2405532490","1977552721","0.142857"
"2009225496","2061069343","0.142857"
"2061069343","2009225496","0.142857"
"2009225496","2171536462","0.142857"
"2171536462","2009225496","0.142857"
"2009225496","2405532490","0.142857"
"2405532490","2009225496","0.142857"
"2061069343","2164761123","0.142857"
"2164761123","2061069343","0.142857"
"2061069343","2167160593","0.142857"
"2167160593","2061069343","0.142857"
"2061069343","2171536462","0.142857"
"2171536462","2061069343","0.142857"
"2061069343","2405532490","0.142857"
"2405532490","2061069343","0.142857"
"2164761123","2171536462","0.142857"
"2171536462","2164761123","0.142857"
"2164761123","2405532490","0.142857"
"2405532490","2164761123","0.142857"
"2167160593","2171536462","0.342857"
"2171536462","2167160593","0.342857"
"2167160593","2405532490","0.342857"
"2405532490","2167160593","0.342857"
"2171536462","2405532490","0.342857"
"2405532490","2171536462","0.342857"
"1520378624","9245423","0.5"
"9245423","1520378624","0.5"
"2171536462","9245423","3.7"
"9245423","2171536462","3.7"
"1787690559","2109305569","1"
"2109305569","1787690559","1"
"1787690559","1973989283","1.5"
"1973989283","1787690559","1.5"
"1787690559","2082169218","3"
"2082169218","1787690559","3"
"1973989283","2082169218","1.5"
"2082169218","1973989283","1.5"
"1787690559","1901071501","1.5"
"1901071501","1787690559","1.5"
"1787690559","1905264094","1"
"1905264094","1787690559","1"
"1901071501","2009225496","0.333333"
"2009225496","1901071501","0.333333"
"1901071501","2164761123","0.333333"
"2164761123","1901071501","0.333333"
"2009225496","2082169218","0.833333"
"2082169218","2009225496","0.833333"
"2082169218","2164761123","0.833333"
"2164761123","2082169218","0.833333"
"1973989283","1993969836","2"
"1993969836","1973989283","2"
"1973989283","2133867421","1"
"2133867421","1973989283","1"
"1977552721","1993969836","1"
"1993969836","1977552721","1"
"1977552721","2133867421","1"
"2133867421","1977552721","1"
"2009225496","2060303375","1"
"2060303375","2009225496","1"
"2036497664","2061069343","1"
"2061069343","2036497664","1"
"2060303375","2133867421","1"
"2133867421","2060303375","1"
"2071693620","2082169218","3.5"
"2082169218","2071693620","3.5"
"2071693620","2109305569","0.7"
"2109305569","2071693620","0.7"
"2071693620","2171536462","1.2"
"2171536462","2071693620","1.2"
"2071693620","2405532490","0.2"
"2405532490","2071693620","0.2"
"2071693620","9245423","0.2"
"9245423","2071693620","0.2"
"2109305569","2167160593","0.2"
"2167160593","2109305569","0.2"
"2109305569","2171536462","0.2"
"2171536462","2109305569","0.2"
"2109305569","2405532490","0.2"
"2405532490","2109305569","0.2"
"2109305569","9245423","0.2"
"9245423","2109305569","0.2"
"2167160593","9245423","0.2"
"9245423","2167160593","0.2"
"2405532490","9245423","0.2"
"9245423","2405532490","0.2"
"2082169218","2133867421","3"
"2133867421","2082169218","3"
"2128098381","2133867421","1"
"2133867421","2128098381","1"
"2416450481","2750218448","1"
"2750218448","2416450481","1"
