"1033896572","193222607","0.2"
"193222607","1033896572","0.2"
"1033896572","2044487619","0.2"
"2044487619","1033896572","0.2"
"1033896572","2077330901","0.2"
"2077330901","1033896572","0.2"
"1033896572","2086583931","0.2"
"2086583931","1033896572","0.2"
"1033896572","2302017845","0.2"
"2302017845","1033896572","0.2"
"193222607","2044487619","0.2"
"2044487619","193222607","0.2"
"193222607","2077330901","0.2"
"2077330901","193222607","0.2"
"193222607","2086583931","1.67619"
"2086583931","193222607","1.67619"
"193222607","2302017845","0.342857"
"2302017845","193222607","0.342857"
"2044487619","2077330901","0.366667"
"2077330901","2044487619","0.366667"
"2044487619","2086583931","0.533333"
"2086583931","2044487619","0.533333"
"2044487619","2302017845","0.866667"
"2302017845","2044487619","0.866667"
"2077330901","2086583931","0.7"
"2086583931","2077330901","0.7"
"2077330901","2302017845","0.366667"
"2302017845","2077330901","0.366667"
"2086583931","2302017845","4.20952"
"2302017845","2086583931","4.20952"
"1033896572","1965759957","1"
"1965759957","1033896572","1"
"1033896572","2537446292","2"
"2537446292","1033896572","2"
"1033896572","2505747953","1"
"2505747953","1033896572","1"
"1547094341","2086583931","1.83333"
"2086583931","1547094341","1.83333"
"1547094341","2302017845","2.66667"
"2302017845","1547094341","2.66667"
"1547094341","1974759005","0.333333"
"1974759005","1547094341","0.333333"
"1547094341","2017057753","0.333333"
"2017057753","1547094341","0.333333"
"1974759005","2017057753","0.333333"
"2017057753","1974759005","0.333333"
"1974759005","2086583931","2.25952"
"2086583931","1974759005","2.25952"
"2017057753","2086583931","1.83333"
"2086583931","2017057753","1.83333"
"1547094341","2121957969","1.5"
"2121957969","1547094341","1.5"
"2086583931","2121957969","5.92619"
"2121957969","2086583931","5.92619"
"1547094341","2044026227","2.16667"
"2044026227","1547094341","2.16667"
"2044026227","2121957969","4.17619"
"2121957969","2044026227","4.17619"
"1547094341","193222607","1.5"
"193222607","1547094341","1.5"
"1547094341","2151629788","0.166667"
"2151629788","1547094341","0.166667"
"1547094341","2329685206","0.5"
"2329685206","1547094341","0.5"
"2044026227","2086583931","1.22619"
"2086583931","2044026227","1.22619"
"2044026227","2151629788","0.416667"
"2151629788","2044026227","0.416667"
"2044026227","2302017845","3.92619"
"2302017845","2044026227","3.92619"
"2044026227","2329685206","2.05952"
"2329685206","2044026227","2.05952"
"2086583931","2151629788","0.416667"
"2151629788","2086583931","0.416667"
"2086583931","2329685206","2.30952"
"2329685206","2086583931","2.30952"
"2121957969","2151629788","0.166667"
"2151629788","2121957969","0.166667"
"2121957969","2302017845","3.45952"
"2302017845","2121957969","3.45952"
"2121957969","2329685206","1.55952"
"2329685206","2121957969","1.55952"
"2151629788","2302017845","0.416667"
"2302017845","2151629788","0.416667"
"2151629788","2329685206","0.416667"
"2329685206","2151629788","0.416667"
"2302017845","2329685206","3.05952"
"2329685206","2302017845","3.05952"
"193222607","2044026227","0.642857"
"2044026227","193222607","0.642857"
"1565493778","2107893469","0.5"
"2107893469","1565493778","0.5"
"1565493778","2123204287","0.5"
"2123204287","1565493778","0.5"
"2107893469","2123204287","0.5"
"2123204287","2107893469","0.5"
"193222607","1974759005","0.47619"
"1974759005","193222607","0.47619"
"193222607","2121957969","0.47619"
"2121957969","193222607","0.47619"
"193222607","2138994413","1.14286"
"2138994413","193222607","1.14286"
"193222607","2329685206","0.142857"
"2329685206","193222607","0.142857"
"1974759005","2044026227","0.67619"
"2044026227","1974759005","0.67619"
"1974759005","2121957969","3.62619"
"2121957969","1974759005","3.62619"
"1974759005","2138994413","0.642857"
"2138994413","1974759005","0.642857"
"1974759005","2302017845","1.62619"
"2302017845","1974759005","1.62619"
"1974759005","2329685206","0.559524"
"2329685206","1974759005","0.559524"
"2044026227","2138994413","0.142857"
"2138994413","2044026227","0.142857"
"2086583931","2138994413","2.47619"
"2138994413","2086583931","2.47619"
"2121957969","2138994413","3.47619"
"2138994413","2121957969","3.47619"
"2138994413","2302017845","0.47619"
"2302017845","2138994413","0.47619"
"2138994413","2329685206","0.392857"
"2329685206","2138994413","0.392857"
"1966544963","2168810197","7.2"
"2168810197","1966544963","7.2"
"1966544963","1974759005","0.366667"
"1974759005","1966544963","0.366667"
"1966544963","2086583931","1.86667"
"2086583931","1966544963","1.86667"
"1966544963","2121957969","2.36667"
"2121957969","1966544963","2.36667"
"1966544963","2302017845","0.2"
"2302017845","1966544963","0.2"
"1974759005","2168810197","0.7"
"2168810197","1974759005","0.7"
"2086583931","2168810197","2.2"
"2168810197","2086583931","2.2"
"2121957969","2168810197","2.2"
"2168810197","2121957969","2.2"
"2168810197","2302017845","0.45"
"2302017845","2168810197","0.45"
"1966544963","2085812989","6.66667"
"2085812989","1966544963","6.66667"
"2085812989","2086583931","2.66667"
"2086583931","2085812989","2.66667"
"1966544963","2329685206","0.166667"
"2329685206","1966544963","0.166667"
"1966544963","2956387240","0.166667"
"2956387240","1966544963","0.166667"
"1974759005","2085812989","0.166667"
"2085812989","1974759005","0.166667"
"1974759005","2956387240","0.166667"
"2956387240","1974759005","0.166667"
"2085812989","2121957969","0.166667"
"2121957969","2085812989","0.166667"
"2085812989","2329685206","0.166667"
"2329685206","2085812989","0.166667"
"2085812989","2956387240","0.166667"
"2956387240","2085812989","0.166667"
"2086583931","2956387240","0.166667"
"2956387240","2086583931","0.166667"
"2121957969","2956387240","0.166667"
"2956387240","2121957969","0.166667"
"2329685206","2956387240","0.166667"
"2956387240","2329685206","0.166667"
"1974759005","2044487619","0.333333"
"2044487619","1974759005","0.333333"
"1974759005","2077330901","0.166667"
"2077330901","1974759005","0.166667"
"2044026227","2044487619","0.333333"
"2044487619","2044026227","0.333333"
"2044026227","2077330901","0.166667"
"2077330901","2044026227","0.166667"
"2044487619","2121957969","0.333333"
"2121957969","2044487619","0.333333"
"2077330901","2121957969","0.5"
"2121957969","2077330901","0.5"
"1974759005","1985200891","0.166667"
"1985200891","1974759005","0.166667"
"1985200891","2044026227","0.166667"
"2044026227","1985200891","0.166667"
"1985200891","2044487619","0.5"
"2044487619","1985200891","0.5"
"1985200891","2086583931","0.166667"
"2086583931","1985200891","0.166667"
"1985200891","2121957969","0.166667"
"2121957969","1985200891","0.166667"
"1985200891","2302017845","0.5"
"2302017845","1985200891","0.5"
"1974759005","2123040233","0.2"
"2123040233","1974759005","0.2"
"1974759005","2123204287","0.2"
"2123204287","1974759005","0.2"
"2044026227","2123040233","2.7"
"2123040233","2044026227","2.7"
"2044026227","2123204287","1.2"
"2123204287","2044026227","1.2"
"2121957969","2123040233","0.2"
"2123040233","2121957969","0.2"
"2121957969","2123204287","0.2"
"2123204287","2121957969","0.2"
"2123040233","2123204287","0.2"
"2123204287","2123040233","0.2"
"2123040233","2302017845","0.2"
"2302017845","2123040233","0.2"
"2123204287","2302017845","0.2"
"2302017845","2123204287","0.2"
"2138994413","2168810197","0.25"
"2168810197","2138994413","0.25"
"1985200891","2009002350","0.333333"
"2009002350","1985200891","0.333333"
"2009002350","2044487619","0.333333"
"2044487619","2009002350","0.333333"
"2009002350","2302017845","0.333333"
"2302017845","2009002350","0.333333"
"1992461263","2052983425","2"
"2052983425","1992461263","2"
"2007691767","2138994413","1"
"2138994413","2007691767","1"
"2008504510","2077330901","0.333333"
"2077330901","2008504510","0.333333"
"2008504510","2086583931","0.333333"
"2086583931","2008504510","0.333333"
"2008504510","2121957969","0.833333"
"2121957969","2008504510","0.833333"
"2008504510","2296372921","0.5"
"2296372921","2008504510","0.5"
"2121957969","2296372921","0.5"
"2296372921","2121957969","0.5"
"2009002350","2017057753","1"
"2017057753","2009002350","1"
"2017057753","2302017845","0.5"
"2302017845","2017057753","0.5"
"2123040233","2329685206","0.5"
"2329685206","2123040233","0.5"
"2044487619","2123040233","0.5"
"2123040233","2044487619","0.5"
"2044487619","2151629788","0.5"
"2151629788","2044487619","0.5"
"2123040233","2151629788","0.5"
"2151629788","2123040233","0.5"
"2138994413","2162178936","1"
"2162178936","2138994413","1"
"2296372921","2505747953","0.5"
"2505747953","2296372921","0.5"
"2296372921","2810658935","0.5"
"2810658935","2296372921","0.5"
"2505747953","2810658935","0.5"
"2810658935","2505747953","0.5"
"2903666811","2957982467","2"
"2957982467","2903666811","2"
