"1596188992","2166106571","16.5"
"2166106571","1596188992","16.5"
"1596188992","1946062231","0.5"
"1946062231","1596188992","0.5"
"1946062231","2166106571","2.5"
"2166106571","1946062231","2.5"
"1625258039","2011897039","0.2"
"2011897039","1625258039","0.2"
"1625258039","2022687548","0.2"
"2022687548","1625258039","0.2"
"1625258039","2151513180","0.2"
"2151513180","1625258039","0.2"
"1625258039","2157783791","0.2"
"2157783791","1625258039","0.2"
"1625258039","2471243040","0.2"
"2471243040","1625258039","0.2"
"2011897039","2022687548","9.57897"
"2022687548","2011897039","9.57897"
"2011897039","2151513180","2.91944"
"2151513180","2011897039","2.91944"
"2011897039","2157783791","5.3873"
"2157783791","2011897039","5.3873"
"2011897039","2471243040","1.2"
"2471243040","2011897039","1.2"
"2022687548","2151513180","4.25278"
"2151513180","2022687548","4.25278"
"2022687548","2157783791","17.554"
"2157783791","2022687548","17.554"
"2022687548","2471243040","1.78333"
"2471243040","2022687548","1.78333"
"2151513180","2157783791","2.12778"
"2157783791","2151513180","2.12778"
"2151513180","2471243040","0.2"
"2471243040","2151513180","0.2"
"2157783791","2471243040","0.45"
"2471243040","2157783791","0.45"
"1634568388","2022687548","5.3373"
"2022687548","1634568388","5.3373"
"1634568388","2008582547","1.00397"
"2008582547","1634568388","1.00397"
"1634568388","2157783791","1.3373"
"2157783791","1634568388","1.3373"
"2008582547","2022687548","18.054"
"2022687548","2008582547","18.054"
"2008582547","2157783791","6.82063"
"2157783791","2008582547","6.82063"
"1634568388","2011897039","0.920635"
"2011897039","1634568388","0.920635"
"1634568388","2061685310","0.611111"
"2061685310","1634568388","0.611111"
"2011897039","2061685310","1.23611"
"2061685310","2011897039","1.23611"
"1634568388","2084598790","0.420635"
"2084598790","1634568388","0.420635"
"1634568388","2166690251","0.253968"
"2166690251","1634568388","0.253968"
"1634568388","2565282135","0.142857"
"2565282135","1634568388","0.142857"
"2008582547","2011897039","4.30397"
"2011897039","2008582547","4.30397"
"2008582547","2084598790","0.953968"
"2084598790","2008582547","0.953968"
"2008582547","2166690251","1.15397"
"2166690251","2008582547","1.15397"
"2008582547","2565282135","0.509524"
"2565282135","2008582547","0.509524"
"2011897039","2084598790","1.74563"
"2084598790","2011897039","1.74563"
"2011897039","2166690251","4.22897"
"2166690251","2011897039","4.22897"
"2011897039","2565282135","1.34286"
"2565282135","2011897039","1.34286"
"2022687548","2084598790","4.07897"
"2084598790","2022687548","4.07897"
"2022687548","2166690251","4.97897"
"2166690251","2022687548","4.97897"
"2022687548","2565282135","1.84286"
"2565282135","2022687548","1.84286"
"2084598790","2157783791","0.420635"
"2157783791","2084598790","0.420635"
"2084598790","2166690251","0.545635"
"2166690251","2084598790","0.545635"
"2084598790","2565282135","0.309524"
"2565282135","2084598790","0.309524"
"2157783791","2166690251","3.6873"
"2166690251","2157783791","3.6873"
"2157783791","2565282135","0.809524"
"2565282135","2157783791","0.809524"
"2166690251","2565282135","0.642857"
"2565282135","2166690251","0.642857"
"1634568388","2596369432","0.25"
"2596369432","1634568388","0.25"
"2008582547","2596369432","0.65"
"2596369432","2008582547","0.65"
"2022687548","2596369432","1.98333"
"2596369432","2022687548","1.98333"
"2157783791","2596369432","0.45"
"2596369432","2157783791","0.45"
"1634568388","2151513180","0.111111"
"2151513180","1634568388","0.111111"
"1634568388","2599404354","0.111111"
"2599404354","1634568388","0.111111"
"2008582547","2061685310","0.944444"
"2061685310","2008582547","0.944444"
"2008582547","2151513180","1.22778"
"2151513180","2008582547","1.22778"
"2008582547","2599404354","0.777778"
"2599404354","2008582547","0.777778"
"2011897039","2599404354","0.986111"
"2599404354","2011897039","0.986111"
"2022687548","2061685310","3.23611"
"2061685310","2022687548","3.23611"
"2022687548","2599404354","3.56944"
"2599404354","2022687548","3.56944"
"2061685310","2084598790","0.569444"
"2084598790","2061685310","0.569444"
"2061685310","2151513180","1.06944"
"2151513180","2061685310","1.06944"
"2061685310","2157783791","0.611111"
"2157783791","2061685310","0.611111"
"2061685310","2166690251","0.569444"
"2166690251","2061685310","0.569444"
"2061685310","2599404354","0.569444"
"2599404354","2061685310","0.569444"
"2084598790","2151513180","0.902778"
"2151513180","2084598790","0.902778"
"2084598790","2599404354","0.569444"
"2599404354","2084598790","0.569444"
"2151513180","2166690251","2.13611"
"2166690251","2151513180","2.13611"
"2151513180","2599404354","0.402778"
"2599404354","2151513180","0.402778"
"2157783791","2599404354","0.527778"
"2599404354","2157783791","0.527778"
"2166690251","2599404354","0.819444"
"2599404354","2166690251","0.819444"
"1634568388","2471243040","0.166667"
"2471243040","1634568388","0.166667"
"1634568388","2546939225","0.166667"
"2546939225","1634568388","0.166667"
"1634568388","2807790133","0.166667"
"2807790133","1634568388","0.166667"
"2008582547","2471243040","0.166667"
"2471243040","2008582547","0.166667"
"2008582547","2546939225","0.166667"
"2546939225","2008582547","0.166667"
"2008582547","2807790133","0.166667"
"2807790133","2008582547","0.166667"
"2011897039","2546939225","0.791667"
"2546939225","2011897039","0.791667"
"2011897039","2807790133","0.166667"
"2807790133","2011897039","0.166667"
"2084598790","2471243040","0.166667"
"2471243040","2084598790","0.166667"
"2084598790","2546939225","0.458333"
"2546939225","2084598790","0.458333"
"2084598790","2807790133","0.166667"
"2807790133","2084598790","0.166667"
"2471243040","2546939225","0.166667"
"2546939225","2471243040","0.166667"
"2471243040","2807790133","0.166667"
"2807790133","2471243040","0.166667"
"2546939225","2807790133","0.166667"
"2807790133","2546939225","0.166667"
"2008582547","2081376643","1.16667"
"2081376643","2008582547","1.16667"
"2022687548","2081376643","1.66667"
"2081376643","2022687548","1.66667"
"2081376643","2157783791","1.16667"
"2157783791","2081376643","1.16667"
"2011897039","2596369432","0.4"
"2596369432","2011897039","0.4"
"2166690251","2596369432","0.2"
"2596369432","2166690251","0.2"
"2008582547","2063459233","1.2"
"2063459233","2008582547","1.2"
"2011897039","2063459233","3.56667"
"2063459233","2011897039","3.56667"
"2022687548","2063459233","2.4"
"2063459233","2022687548","2.4"
"2063459233","2084598790","0.166667"
"2084598790","2063459233","0.166667"
"2063459233","2157783791","1.2"
"2157783791","2063459233","1.2"
"2063459233","2565282135","0.533333"
"2565282135","2063459233","0.533333"
"2008582547","2346339322","0.5"
"2346339322","2008582547","0.5"
"2022687548","2346339322","0.5"
"2346339322","2022687548","0.5"
"2008582547","2596561671","0.2"
"2596561671","2008582547","0.2"
"2011897039","2596561671","0.2"
"2596561671","2011897039","0.2"
"2022687548","2596561671","1.03333"
"2596561671","2022687548","1.03333"
"2084598790","2596369432","0.2"
"2596369432","2084598790","0.2"
"2084598790","2596561671","0.2"
"2596561671","2084598790","0.2"
"2596369432","2596561671","0.533333"
"2596561671","2596369432","0.533333"
"2008582547","2760152215","0.333333"
"2760152215","2008582547","0.333333"
"2022687548","2760152215","2.33333"
"2760152215","2022687548","2.33333"
"2081376643","2760152215","0.333333"
"2760152215","2081376643","0.333333"
"2008582547","2773187952","0.5"
"2773187952","2008582547","0.5"
"2599404354","2773187952","0.875"
"2773187952","2599404354","0.875"
"2008582547","2773296755","0.2"
"2773296755","2008582547","0.2"
"2011897039","2773296755","0.2"
"2773296755","2011897039","0.2"
"2022687548","2773296755","0.2"
"2773296755","2022687548","0.2"
"2063459233","2773296755","0.2"
"2773296755","2063459233","0.2"
"2565282135","2773296755","0.2"
"2773296755","2565282135","0.2"
"2063459233","2471243040","0.833333"
"2471243040","2063459233","0.833333"
"2063459233","2151513180","0.2"
"2151513180","2063459233","0.2"
"2063459233","2166690251","0.366667"
"2166690251","2063459233","0.366667"
"2022687548","2546939225","2.125"
"2546939225","2022687548","2.125"
"2061685310","2546939225","0.291667"
"2546939225","2061685310","0.291667"
"2166690251","2546939225","0.291667"
"2546939225","2166690251","0.291667"
"2546939225","2599404354","1.29167"
"2599404354","2546939225","1.29167"
"2546939225","2565282135","0.833333"
"2565282135","2546939225","0.833333"
"2063459233","2599404354","0.166667"
"2599404354","2063459233","0.166667"
"2565282135","2599404354","0.166667"
"2599404354","2565282135","0.166667"
"2011897039","2773187952","0.625"
"2773187952","2011897039","0.625"
"2022687548","2773187952","2.45833"
"2773187952","2022687548","2.45833"
"2061685310","2773187952","0.125"
"2773187952","2061685310","0.125"
"2084598790","2773187952","0.125"
"2773187952","2084598790","0.125"
"2151513180","2546939225","0.125"
"2546939225","2151513180","0.125"
"2151513180","2773187952","0.125"
"2773187952","2151513180","0.125"
"2166690251","2773187952","0.875"
"2773187952","2166690251","0.875"
"2546939225","2773187952","0.125"
"2773187952","2546939225","0.125"
"2022687548","2168904211","1"
"2168904211","2022687548","1"
"2061685310","2596561671","0.5"
"2596561671","2061685310","0.5"
"2596369432","2599404354","0.333333"
"2599404354","2596369432","0.333333"
"2596561671","2599404354","0.333333"
"2599404354","2596561671","0.333333"
"2157783791","2773187952","0.25"
"2773187952","2157783791","0.25"
"2166690251","2471243040","0.25"
"2471243040","2166690251","0.25"
"2471243040","2773187952","0.25"
"2773187952","2471243040","0.25"
"2022687548","2708787519","1"
"2708787519","2022687548","1"
"2022687548","2908346042","1.25"
"2908346042","2022687548","1.25"
"2022687548","2807790133","0.333333"
"2807790133","2022687548","0.333333"
"2565282135","2773187952","0.333333"
"2773187952","2565282135","0.333333"
"2565282135","2807790133","0.333333"
"2807790133","2565282135","0.333333"
"2773187952","2807790133","0.333333"
"2807790133","2773187952","0.333333"
"2063459233","2773187952","0.5"
"2773187952","2063459233","0.5"
"2022687548","2998815819","0.25"
"2998815819","2022687548","0.25"
"2599404354","2908346042","0.25"
"2908346042","2599404354","0.25"
"2599404354","2998815819","0.25"
"2998815819","2599404354","0.25"
"2773187952","2908346042","0.25"
"2908346042","2773187952","0.25"
"2773187952","2998815819","0.25"
"2998815819","2773187952","0.25"
"2908346042","2998815819","0.25"
"2998815819","2908346042","0.25"
"2061685310","2063459233","0.333333"
"2063459233","2061685310","0.333333"
"2061685310","2081376643","0.333333"
"2081376643","2061685310","0.333333"
"2063459233","2081376643","0.333333"
"2081376643","2063459233","0.333333"
"2063459233","2913042876","1"
"2913042876","2063459233","1"
"2151513180","2596561671","1"
"2596561671","2151513180","1"
"2157783791","2773296755","1"
"2773296755","2157783791","1"
"2163461704","2163730112","1"
"2163730112","2163461704","1"
"2163730112","2168904211","0.5"
"2168904211","2163730112","0.5"
"2163730112","2170711609","1.5"
"2170711609","2163730112","1.5"
"2168904211","2170711609","3.5"
"2170711609","2168904211","3.5"
