"1482124653","2011741072","1.2"
"2011741072","1482124653","1.2"
"1482124653","2062499875","1.34286"
"2062499875","1482124653","1.34286"
"1482124653","2159456281","3.34286"
"2159456281","1482124653","3.34286"
"2011741072","2062499875","12.7"
"2062499875","2011741072","12.7"
"2011741072","2159456281","6.03333"
"2159456281","2011741072","6.03333"
"2062499875","2159456281","4.67619"
"2159456281","2062499875","4.67619"
"1482124653","1697827404","7.64286"
"1697827404","1482124653","7.64286"
"1482124653","2159792176","8.97619"
"2159792176","1482124653","8.97619"
"1482124653","3022307797","2.5"
"3022307797","1482124653","2.5"
"2159792176","3022307797","0.5"
"3022307797","2159792176","0.5"
"1482124653","1972359875","2.14286"
"1972359875","1482124653","2.14286"
"1482124653","2133060220","0.333333"
"2133060220","1482124653","0.333333"
"1482124653","2143272542","1.33333"
"2143272542","1482124653","1.33333"
"2133060220","2143272542","7.33333"
"2143272542","2133060220","7.33333"
"2133060220","2159792176","0.333333"
"2159792176","2133060220","0.333333"
"2143272542","2159792176","1.33333"
"2159792176","2143272542","1.33333"
"1482124653","2034717219","1.5"
"2034717219","1482124653","1.5"
"1482124653","2131433770","1"
"2131433770","1482124653","1"
"1482124653","2006246616","1"
"2006246616","1482124653","1"
"1482124653","1808466474","0.142857"
"1808466474","1482124653","0.142857"
"1482124653","2626700674","0.142857"
"2626700674","1482124653","0.142857"
"1697827404","1808466474","0.142857"
"1808466474","1697827404","0.142857"
"1697827404","1972359875","0.142857"
"1972359875","1697827404","0.142857"
"1697827404","2062499875","0.142857"
"2062499875","1697827404","0.142857"
"1697827404","2159456281","0.47619"
"2159456281","1697827404","0.47619"
"1697827404","2159792176","0.142857"
"2159792176","1697827404","0.142857"
"1697827404","2626700674","0.142857"
"2626700674","1697827404","0.142857"
"1808466474","1972359875","0.142857"
"1972359875","1808466474","0.142857"
"1808466474","2062499875","0.142857"
"2062499875","1808466474","0.142857"
"1808466474","2159456281","0.142857"
"2159456281","1808466474","0.142857"
"1808466474","2159792176","0.142857"
"2159792176","1808466474","0.142857"
"1808466474","2626700674","2.39286"
"2626700674","1808466474","2.39286"
"1972359875","2062499875","5.97619"
"2062499875","1972359875","5.97619"
"1972359875","2159456281","4.14286"
"2159456281","1972359875","4.14286"
"1972359875","2159792176","0.142857"
"2159792176","1972359875","0.142857"
"1972359875","2626700674","0.142857"
"2626700674","1972359875","0.142857"
"2062499875","2159792176","0.142857"
"2159792176","2062499875","0.142857"
"2062499875","2626700674","0.142857"
"2626700674","2062499875","0.142857"
"2159456281","2159792176","0.142857"
"2159792176","2159456281","0.142857"
"2159456281","2626700674","0.142857"
"2626700674","2159456281","0.142857"
"2159792176","2626700674","0.142857"
"2626700674","2159792176","0.142857"
"1482124653","2081556881","1"
"2081556881","1482124653","1"
"1482124653","1969664386","0.2"
"1969664386","1482124653","0.2"
"1482124653","2077688598","0.2"
"2077688598","1482124653","0.2"
"1969664386","2011741072","0.533333"
"2011741072","1969664386","0.533333"
"1969664386","2062499875","0.533333"
"2062499875","1969664386","0.533333"
"1969664386","2077688598","0.2"
"2077688598","1969664386","0.2"
"1969664386","2159456281","0.2"
"2159456281","1969664386","0.2"
"2011741072","2077688598","2.7"
"2077688598","2011741072","2.7"
"2062499875","2077688598","3.2"
"2077688598","2062499875","3.2"
"2077688598","2159456281","0.2"
"2159456281","2077688598","0.2"
"1697827404","2034717219","0.5"
"2034717219","1697827404","0.5"
"1485273397","2058335191","0.5"
"2058335191","1485273397","0.5"
"1485273397","2143272542","5"
"2143272542","1485273397","5"
"2058335191","2143272542","4"
"2143272542","2058335191","4"
"1485273397","2133060220","1.5"
"2133060220","1485273397","1.5"
"1494658578","1969664386","0.333333"
"1969664386","1494658578","0.333333"
"1494658578","2011741072","4.16667"
"2011741072","1494658578","4.16667"
"1494658578","2062499875","1.66667"
"2062499875","1494658578","1.66667"
"1494658578","2159456281","1.33333"
"2159456281","1494658578","1.33333"
"1494658578","1972359875","0.5"
"1972359875","1494658578","0.5"
"1503549015","2626700674","1"
"2626700674","1503549015","1"
"1503549015","1868343849","3"
"1868343849","1503549015","3"
"1503549015","3022307797","0.5"
"3022307797","1503549015","0.5"
"1503549015","37510046","0.5"
"37510046","1503549015","0.5"
"3022307797","37510046","3.5"
"37510046","3022307797","3.5"
"1503549015","1697827404","1"
"1697827404","1503549015","1"
"1558881891","2230344084","2"
"2230344084","1558881891","2"
"1558881891","1980388712","0.5"
"1980388712","1558881891","0.5"
"1558881891","2123917150","0.5"
"2123917150","1558881891","0.5"
"1980388712","2123917150","11.8833"
"2123917150","1980388712","11.8833"
"1598694436","37510046","1"
"37510046","1598694436","1"
"1602250655","1988730366","1"
"1988730366","1602250655","1"
"1602250655","2579507913","2"
"2579507913","1602250655","2"
"1602250655","2040168713","1"
"2040168713","1602250655","1"
"1603774346","2062499875","1"
"2062499875","1603774346","1"
"1697827404","3022307797","1"
"3022307797","1697827404","1"
"1697827404","1968114112","0.333333"
"1968114112","1697827404","0.333333"
"1697827404","2071201575","0.333333"
"2071201575","1697827404","0.333333"
"1968114112","2071201575","1.33333"
"2071201575","1968114112","1.33333"
"1968114112","2159456281","0.333333"
"2159456281","1968114112","0.333333"
"2071201575","2159456281","0.333333"
"2159456281","2071201575","0.333333"
"1697827404","37510046","1"
"37510046","1697827404","1"
"1808466474","1988730366","0.25"
"1988730366","1808466474","0.25"
"1808466474","2011741072","0.25"
"2011741072","1808466474","0.25"
"1808466474","2071201575","0.25"
"2071201575","1808466474","0.25"
"1988730366","2011741072","0.75"
"2011741072","1988730366","0.75"
"1988730366","2071201575","2.25"
"2071201575","1988730366","2.25"
"1988730366","2626700674","0.25"
"2626700674","1988730366","0.25"
"2011741072","2071201575","4.25"
"2071201575","2011741072","4.25"
"2011741072","2626700674","0.25"
"2626700674","2011741072","0.25"
"2071201575","2626700674","0.25"
"2626700674","2071201575","0.25"
"1868343849","3022307797","1"
"3022307797","1868343849","1"
"1961634645","2014137027","1.33333"
"2014137027","1961634645","1.33333"
"1961634645","2171560124","0.333333"
"2171560124","1961634645","0.333333"
"1961634645","2253404081","0.333333"
"2253404081","1961634645","0.333333"
"2014137027","2171560124","5.16667"
"2171560124","2014137027","5.16667"
"2014137027","2253404081","4.66667"
"2253404081","2014137027","4.66667"
"2171560124","2253404081","0.666667"
"2253404081","2171560124","0.666667"
"1968114112","2015521515","2.75"
"2015521515","1968114112","2.75"
"1968114112","2073522142","0.5"
"2073522142","1968114112","0.5"
"2015521515","2073522142","0.5"
"2073522142","2015521515","0.5"
"1968114112","1972359875","1"
"1972359875","1968114112","1"
"1968114112","2123917150","1"
"2123917150","1968114112","1"
"1968114112","2003535228","0.5"
"2003535228","1968114112","0.5"
"1968114112","2101658431","0.25"
"2101658431","1968114112","0.25"
"1968114112","2102848110","0.25"
"2102848110","1968114112","0.25"
"2003535228","2015521515","2.41667"
"2015521515","2003535228","2.41667"
"2003535228","2101658431","0.666667"
"2101658431","2003535228","0.666667"
"2003535228","2102848110","0.25"
"2102848110","2003535228","0.25"
"2015521515","2101658431","0.416667"
"2101658431","2015521515","0.416667"
"2015521515","2102848110","0.25"
"2102848110","2015521515","0.25"
"2101658431","2102848110","2.16667"
"2102848110","2101658431","2.16667"
"1968114112","2014137027","0.25"
"2014137027","1968114112","0.25"
"1968114112","2040168713","0.25"
"2040168713","1968114112","0.25"
"1968114112","2520883028","0.25"
"2520883028","1968114112","0.25"
"2003535228","2014137027","0.25"
"2014137027","2003535228","0.25"
"2003535228","2040168713","0.25"
"2040168713","2003535228","0.25"
"2003535228","2520883028","0.666667"
"2520883028","2003535228","0.666667"
"2014137027","2040168713","1.25"
"2040168713","2014137027","1.25"
"2014137027","2520883028","0.75"
"2520883028","2014137027","0.75"
"2040168713","2520883028","0.25"
"2520883028","2040168713","0.25"
"1968114112","2605881017","1"
"2605881017","1968114112","1"
"1968114112","2253404081","1"
"2253404081","1968114112","1"
"1969961850","2075402556","1"
"2075402556","1969961850","1"
"1969961850","2077688598","1"
"2077688598","1969961850","1"
"1972359875","2011741072","2.33333"
"2011741072","1972359875","2.33333"
"1972359875","2077688598","2.5"
"2077688598","1972359875","2.5"
"1972359875","2006422400","0.333333"
"2006422400","1972359875","0.333333"
"2006422400","2011741072","0.333333"
"2011741072","2006422400","0.333333"
"2006422400","2062499875","0.333333"
"2062499875","2006422400","0.333333"
"1972359875","2170121907","0.5"
"2170121907","1972359875","0.5"
"2159456281","2170121907","0.5"
"2170121907","2159456281","0.5"
"1980388712","2062748597","2.05"
"2062748597","1980388712","2.05"
"1980388712","2129763427","1.05"
"2129763427","1980388712","1.05"
"1980388712","3022307797","8.55"
"3022307797","1980388712","8.55"
"2062748597","2123917150","6.8"
"2123917150","2062748597","6.8"
"2062748597","2129763427","4.3"
"2129763427","2062748597","4.3"
"2062748597","3022307797","4.3"
"3022307797","2062748597","4.3"
"2123917150","2129763427","7.8"
"2129763427","2123917150","7.8"
"2123917150","3022307797","15.3"
"3022307797","2123917150","15.3"
"2129763427","3022307797","1.8"
"3022307797","2129763427","1.8"
"1980388712","2168568775","2.5"
"2168568775","1980388712","2.5"
"2168568775","3022307797","6"
"3022307797","2168568775","6"
"1980388712","2158508691","1.3"
"2158508691","1980388712","1.3"
"2062748597","2158508691","1.3"
"2158508691","2062748597","1.3"
"2123917150","2158508691","2.3"
"2158508691","2123917150","2.3"
"2129763427","2158508691","0.8"
"2158508691","2129763427","0.8"
"2158508691","3022307797","1.3"
"3022307797","2158508691","1.3"
"1980388712","2016027835","2"
"2016027835","1980388712","2"
"1980388712","2015521515","1.25"
"2015521515","1980388712","1.25"
"1980388712","2534452010","0.5"
"2534452010","1980388712","0.5"
"2015521515","2123917150","1.25"
"2123917150","2015521515","1.25"
"2015521515","2534452010","0.25"
"2534452010","2015521515","0.25"
"2015521515","3022307797","1.75"
"3022307797","2015521515","1.75"
"2123917150","2534452010","0.5"
"2534452010","2123917150","0.5"
"2534452010","3022307797","0.5"
"3022307797","2534452010","0.5"
"1980388712","2534333377","1.25"
"2534333377","1980388712","1.25"
"2123917150","2534333377","1.75"
"2534333377","2123917150","1.75"
"2534333377","3022307797","0.75"
"3022307797","2534333377","0.75"
"1980388712","2602934762","0.5"
"2602934762","1980388712","0.5"
"2123917150","2602934762","3.5"
"2602934762","2123917150","3.5"
"2534333377","2534452010","0.25"
"2534452010","2534333377","0.25"
"1980388712","2346581999","0.333333"
"2346581999","1980388712","0.333333"
"1980388712","2796434639","0.333333"
"2796434639","1980388712","0.333333"
"2123917150","2346581999","1.58333"
"2346581999","2123917150","1.58333"
"2123917150","2796434639","1.33333"
"2796434639","2123917150","1.33333"
"2346581999","2796434639","0.333333"
"2796434639","2346581999","0.333333"
"1980388712","2913848260","1"
"2913848260","1980388712","1"
"2123917150","2913848260","2.25"
"2913848260","2123917150","2.25"
"1986738380","2123917150","2.5"
"2123917150","1986738380","2.5"
"1986738380","3022307797","0.5"
"3022307797","1986738380","0.5"
"1988730366","2057728405","0.5"
"2057728405","1988730366","0.5"
"2011741072","2057728405","0.5"
"2057728405","2011741072","0.5"
"1988730366","2040168713","2"
"2040168713","1988730366","2"
"1988730366","2124145156","0.5"
"2124145156","1988730366","0.5"
"2040168713","2124145156","1.5"
"2124145156","2040168713","1.5"
"1988730366","2006422400","0.5"
"2006422400","1988730366","0.5"
"2006422400","2040168713","0.5"
"2040168713","2006422400","0.5"
"2003535228","2123917150","0.25"
"2123917150","2003535228","0.25"
"2003535228","2761680260","0.25"
"2761680260","2003535228","0.25"
"2101658431","2123917150","3.86667"
"2123917150","2101658431","3.86667"
"2101658431","2520883028","7.61667"
"2520883028","2101658431","7.61667"
"2101658431","2761680260","2.2"
"2761680260","2101658431","2.2"
"2123917150","2520883028","1.86667"
"2520883028","2123917150","1.86667"
"2123917150","2761680260","1.45"
"2761680260","2123917150","1.45"
"2520883028","2761680260","1.36667"
"2761680260","2520883028","1.36667"
"2003535228","2605881017","0.166667"
"2605881017","2003535228","0.166667"
"2003535228","2793264686","0.166667"
"2793264686","2003535228","0.166667"
"2003535228","2889405695","0.166667"
"2889405695","2003535228","0.166667"
"2015521515","2520883028","0.166667"
"2520883028","2015521515","0.166667"
"2015521515","2605881017","0.166667"
"2605881017","2015521515","0.166667"
"2015521515","2793264686","0.166667"
"2793264686","2015521515","0.166667"
"2015521515","2889405695","0.166667"
"2889405695","2015521515","0.166667"
"2101658431","2605881017","0.166667"
"2605881017","2101658431","0.166667"
"2101658431","2793264686","1.7"
"2793264686","2101658431","1.7"
"2101658431","2889405695","1.53333"
"2889405695","2101658431","1.53333"
"2520883028","2605881017","0.166667"
"2605881017","2520883028","0.166667"
"2520883028","2793264686","1.86667"
"2793264686","2520883028","1.86667"
"2520883028","2889405695","1.7"
"2889405695","2520883028","1.7"
"2605881017","2793264686","0.166667"
"2793264686","2605881017","0.166667"
"2605881017","2889405695","0.166667"
"2889405695","2605881017","0.166667"
"2793264686","2889405695","1.03333"
"2889405695","2793264686","1.03333"
"2006246616","2015521515","0.5"
"2015521515","2006246616","0.5"
"2006246616","2124145156","0.5"
"2124145156","2006246616","0.5"
"2015521515","2124145156","0.5"
"2124145156","2015521515","0.5"
"2006246616","2016027835","0.5"
"2016027835","2006246616","0.5"
"2006246616","2102848110","0.5"
"2102848110","2006246616","0.5"
"2016027835","2102848110","1.5"
"2102848110","2016027835","1.5"
"2006246616","2014137027","1"
"2014137027","2006246616","1"
"2006422400","2073522142","1"
"2073522142","2006422400","1"
"2009341740","2097159626","2"
"2097159626","2009341740","2"
"2009341740","2125413643","1"
"2125413643","2009341740","1"
"2009341740","2159456281","1"
"2159456281","2009341740","1"
"2011741072","2073522142","1"
"2073522142","2011741072","1"
"2011741072","2102848110","1"
"2102848110","2011741072","1"
"2014137027","2016027835","19.8333"
"2016027835","2014137027","19.8333"
"2014137027","2015521515","1"
"2015521515","2014137027","1"
"2014137027","2102848110","5"
"2102848110","2014137027","5"
"2014137027","3022307797","2.25"
"3022307797","2014137027","2.25"
"2014137027","2123917150","2.5"
"2123917150","2014137027","2.5"
"2016027835","2123917150","0.5"
"2123917150","2016027835","0.5"
"2014137027","2101658431","0.75"
"2101658431","2014137027","0.75"
"2014137027","2129763427","1"
"2129763427","2014137027","1"
"2102848110","2129763427","1.66667"
"2129763427","2102848110","1.66667"
"2016027835","2129763427","2.5"
"2129763427","2016027835","2.5"
"2016027835","2171560124","0.833333"
"2171560124","2016027835","0.833333"
"2016027835","2253404081","0.833333"
"2253404081","2016027835","0.833333"
"2253404081","2520883028","1.5"
"2520883028","2253404081","1.5"
"2016027835","2101658431","0.25"
"2101658431","2016027835","0.25"
"2101658431","2171560124","0.25"
"2171560124","2101658431","0.25"
"2102848110","2171560124","1.5"
"2171560124","2102848110","1.5"
"2016027835","3022307797","0.25"
"3022307797","2016027835","0.25"
"2102848110","3022307797","0.25"
"3022307797","2102848110","0.25"
"2171560124","3022307797","0.25"
"3022307797","2171560124","0.25"
"2014137027","2761680260","1"
"2761680260","2014137027","1"
"2015521515","2168568775","0.5"
"2168568775","2015521515","0.5"
"2015521515","2778036648","1"
"2778036648","2015521515","1"
"2016027835","2295643294","1"
"2295643294","2016027835","1"
"2019575603","2097159626","1"
"2097159626","2019575603","1"
"2031163946","2123917150","0.5"
"2123917150","2031163946","0.5"
"2031163946","2129763427","0.5"
"2129763427","2031163946","0.5"
"2034717219","2081556881","2"
"2081556881","2034717219","2"
"2038350468","2081556881","9"
"2081556881","2038350468","9"
"2040168713","3022307797","2"
"3022307797","2040168713","2"
"2040168713","2579507913","1"
"2579507913","2040168713","1"
"2040168713","2793264686","1"
"2793264686","2040168713","1"
"2045728051","2123917150","4"
"2123917150","2045728051","4"
"2053965530","2097159626","1"
"2097159626","2053965530","1"
"2053965530","2131433770","1"
"2131433770","2053965530","1"
"2057728405","2124145156","1"
"2124145156","2057728405","1"
"2058335191","2133060220","1.5"
"2133060220","2058335191","1.5"
"2062499875","3022307797","1"
"3022307797","2062499875","1"
"2062748597","2346581999","1.25"
"2346581999","2062748597","1.25"
"2129763427","2346581999","0.25"
"2346581999","2129763427","0.25"
"2346581999","3022307797","0.25"
"3022307797","2346581999","0.25"
"2071201575","3022307797","2"
"3022307797","2071201575","2"
"2073522142","2077688598","3"
"2077688598","2073522142","3"
"2073522142","3022307797","1"
"3022307797","2073522142","1"
"2077688598","2102848110","0.5"
"2102848110","2077688598","0.5"
"2077688598","2159792176","0.5"
"2159792176","2077688598","0.5"
"2102848110","2159792176","0.5"
"2159792176","2102848110","0.5"
"2081556881","2121947731","11.5"
"2121947731","2081556881","11.5"
"2081556881","2133060220","2"
"2133060220","2081556881","2"
"2081556881","3022307797","1"
"3022307797","2081556881","1"
"2081556881","2143272542","0.5"
"2143272542","2081556881","0.5"
"2121947731","2143272542","1.5"
"2143272542","2121947731","1.5"
"2081556881","2123917150","0.5"
"2123917150","2081556881","0.5"
"2081556881","2253404081","0.5"
"2253404081","2081556881","0.5"
"2123917150","2253404081","1"
"2253404081","2123917150","1"
"2097159626","2136388275","2"
"2136388275","2097159626","2"
"2101658431","2168568775","1"
"2168568775","2101658431","1"
"2101658431","2129763427","0.916667"
"2129763427","2101658431","0.916667"
"2129763427","2520883028","0.916667"
"2520883028","2129763427","0.916667"
"2102848110","2123917150","1.16667"
"2123917150","2102848110","1.16667"
"2102848110","2520883028","0.166667"
"2520883028","2102848110","0.166667"
"2102848110","2761680260","0.166667"
"2761680260","2102848110","0.166667"
"2102848110","2793264686","0.166667"
"2793264686","2102848110","0.166667"
"2123917150","2793264686","0.7"
"2793264686","2123917150","0.7"
"2129763427","2761680260","0.75"
"2761680260","2129763427","0.75"
"2129763427","2793264686","0.5"
"2793264686","2129763427","0.5"
"2761680260","2793264686","1.53333"
"2793264686","2761680260","1.53333"
"2123917150","2889405695","1.45"
"2889405695","2123917150","1.45"
"2761680260","2889405695","1.28333"
"2889405695","2761680260","1.28333"
"2101658431","2913848260","0.25"
"2913848260","2101658431","0.25"
"2520883028","2913848260","0.25"
"2913848260","2520883028","0.25"
"2889405695","2913848260","0.25"
"2913848260","2889405695","0.25"
"2129763427","2889405695","0.25"
"2889405695","2129763427","0.25"
"2102848110","2168568775","1"
"2168568775","2102848110","1"
"2114580082","3022307797","1"
"3022307797","2114580082","1"
"2120323927","2626700674","1"
"2626700674","2120323927","1"
"2123917150","2125413643","1"
"2125413643","2123917150","1"
"2123917150","2168568775","1.5"
"2168568775","2123917150","1.5"
"2123917150","2124145156","1"
"2124145156","2123917150","1"
"2123917150","2611953330","2.5"
"2611953330","2123917150","2.5"
"2253404081","2611953330","1.5"
"2611953330","2253404081","1.5"
"2168568775","2761680260","6"
"2761680260","2168568775","6"
"2124145156","2125413643","1"
"2125413643","2124145156","1"
"2124145156","2170121907","1"
"2170121907","2124145156","1"
"2125413643","37510046","1"
"37510046","2125413643","1"
"2125413643","3022307797","2"
"3022307797","2125413643","2"
"2131433770","2159792176","1"
"2159792176","2131433770","1"
"2135273364","2159456281","2"
"2159456281","2135273364","2"
"2135273364","3022307797","2"
"3022307797","2135273364","2"
"2136388275","3022307797","1"
"3022307797","2136388275","1"
"2143272542","2159456281","1"
"2159456281","2143272542","1"
"2143272542","3022307797","1"
"3022307797","2143272542","1"
"2168568775","2793264686","0.5"
"2793264686","2168568775","0.5"
"2171560124","2760791623","1"
"2760791623","2171560124","1"
"2253404081","2534333377","1"
"2534333377","2253404081","1"
"2346581999","2534333377","1"
"2534333377","2346581999","1"
"2520883028","2979739534","0.5"
"2979739534","2520883028","0.5"
"2793264686","2979739534","0.5"
"2979739534","2793264686","0.5"
"2602934762","2760791623","1"
"2760791623","2602934762","1"
"2602934762","2788272508","3"
"2788272508","2602934762","3"
"2605881017","2760791623","1"
"2760791623","2605881017","1"
"2611953330","2778036648","1"
"2778036648","2611953330","1"
"2889405695","2940809232","2"
"2940809232","2889405695","2"
