"181255585","1542284597","0",\N
"181255585","1546502429","0",\N
"181255585","1602304209","0",\N
"181255585","2016568500","0",\N
"181255585","2020667922","0",\N
"181255585","2028810660","0",\N
"181255585","2062692134","0",\N
"181255585","2087946025","0",\N
"181255585","2096653140","0",\N
"181255585","2111313199","0",\N
"181255585","2113848838","0",\N
"181255585","2126798794","0",\N
"181255585","2140337547","0",\N
"181255585","2140818940","0",\N
"181255585","2146104140","0",\N
"181255585","2752455916","0",\N
"1859141437","1499659938","0",\N
"1859141437","1526969310","0",\N
"1859141437","1557498543","0",\N
"1859141437","1559406051","0",\N
"1859141437","1584310041","0",\N
"1859141437","17059266","0",\N
"1859141437","1969594606","0",\N
"1859141437","1992610711","0",\N
"1859141437","2018798243","0",\N
"1859141437","2025605928","0",\N
"1859141437","2045571829","0",\N
"1859141437","2057728388","0",\N
"1859141437","2060903226","0",\N
"1859141437","2118576715","0",\N
"1859141437","2120978952","0",\N
"1859141437","2129559874","0",\N
"1859141437","2130493984","0",\N
"1859141437","2150531367","0",\N
"1859141437","2159420337","0",\N
"1859141437","2164602322","0",\N
"1859141437","2210643551","0",\N
"1859141437","2214545735","0",\N
"1859141437","38302489","0",\N
"1928649470","1542471745","0",\N
"1928649470","1717525145","0",\N
"1928649470","1998536336","0",\N
"1928649470","2033337919","0",\N
"1928649470","2069066291","1",\N
"1928649470","2095958260","0",\N
"1928649470","2114767673","1",\N
"1928649470","2120978952","0",\N
"1928649470","2136719335","1",\N
"1928649470","2150531367","0",\N
"1928649470","2155839895","0",\N
"1928649470","2254617057","0",\N
"1928649470","2489140591","0",\N
"1965277101","1482776073","0",\N
"1965277101","1573502374","0",\N
"1965277101","1995969037","0",\N
"1965277101","2016568500","0",\N
"1965277101","2023316955","0",\N
"1965277101","2057988979","0",\N
"1965277101","2070527651","0",\N
"1965277101","2137837900","0",\N
"1965277101","2147428061","0",\N
"1965277101","2172521331","0",\N
"1965277101","3022607203","0",\N
"1989405469","1573502374","0",\N
"1989405469","1976434045","0",\N
"1989405469","2045925548","0",\N
"1989405469","2121394299","0",\N
"1989405469","2136151568","0",\N
"1989405469","2145247175","0",\N
"2044189551","1797299833","0",\N
"2044189551","2000117884","0",\N
"2044189551","2045895677","1",\N
"2044189551","2090403712","0",\N
"2044189551","2115053229","0",\N
"2044189551","2161901678","0",\N
"2044189551","64864465","0",\N
"2045895677","1494251906","0",\N
"2045895677","1507574638","0",\N
"2045895677","1526969310","0",\N
"2045895677","1536113492","0",\N
"2045895677","1553286440","0",\N
"2045895677","1578960547","0",\N
"2045895677","1606405908","0",\N
"2045895677","1663018970","0",\N
"2045895677","1687987925","0",\N
"2045895677","17059266","0",\N
"2045895677","17867534","0",\N
"2045895677","1859141437","1",\N
"2045895677","1875216594","0",\N
"2045895677","1931812436","0",\N
"2045895677","1987634577","0",\N
"2045895677","1992610711","0",\N
"2045895677","2001560732","0",\N
"2045895677","2001907377","0",\N
"2045895677","2008505195","1",\N
"2045895677","2009578745","0",\N
"2045895677","2025605928","0",\N
"2045895677","2026032320","0",\N
"2045895677","2030630733","0",\N
"2045895677","2034740399","0",\N
"2045895677","2038118137","0",\N
"2045895677","2039471530","0",\N
"2045895677","2045507107","0",\N
"2045895677","2048845959","0",\N
"2045895677","2056803026","0",\N
"2045895677","2079814255","0",\N
"2045895677","2085136410","0",\N
"2045895677","2091535159","1",\N
"2045895677","2091579301","0",\N
"2045895677","2106122990","1",\N
"2045895677","2106788339","0",\N
"2045895677","2114168991","0",\N
"2045895677","2115009463","0",\N
"2045895677","2120808515","0",\N
"2045895677","2120978952","0",\N
"2045895677","2129559874","0",\N
"2045895677","2136487568","0",\N
"2045895677","2141951329","0",\N
"2045895677","2150531367","0",\N
"2045895677","2155839895","0",\N
"2045895677","2159420337","0",\N
"2045895677","2166528905","0",\N
"2045895677","2210643551","0",\N
"2045895677","2301605390","0",\N
"2045895677","275974768","0",\N
"2045895677","371630220","0",\N
"2045895677","38302489","0",\N
"2045895677","390233999","0",\N
"2045895677","575405222","0",\N
"2045895677","99654229","0",\N
"2065854830","104679929","0",\N
"2065854830","1489019294","0",\N
"2065854830","1542471745","0",\N
"2065854830","1549145368","0",\N
"2065854830","1557498543","0",\N
"2065854830","1561539432","1",\N
"2065854830","1564491530","0",\N
"2065854830","157309240","0",\N
"2065854830","1577316669","0",\N
"2065854830","1985959794","0",\N
"2065854830","1998536336","0",\N
"2065854830","2024616660","0",\N
"2065854830","2069066291","1",\N
"2065854830","2077002495","0",\N
"2065854830","2079814255","0",\N
"2065854830","2083956176","0",\N
"2065854830","2120978952","0",\N
"2065854830","2127065704","0",\N
"2065854830","2129466151","0",\N
"2065854830","2135521784","0",\N
"2065854830","2136719335","1",\N
"2065854830","2150531367","0",\N
"2065854830","2162178624","0",\N
"2065854830","227006587","0",\N
"2065854830","2913228610","0",\N
"2065854830","2936434980","0",\N
"2075078725","2399834472","0",\N
"2091535159","1598226182","0",\N
"2091535159","1601525981","0",\N
"2091535159","163639257","0",\N
"2091535159","1859141437","1",\N
"2091535159","2045507107","0",\N
"2091535159","2099358823","0",\N
"2091535159","2120808515","0",\N
"2091535159","2159420337","0",\N
"2091535159","2166528905","0",\N
"2108973473","1495419098","0",\N
"2108973473","2045895677","1",\N
"2108973473","2098118776","0",\N
"2108973473","2119614939","0",\N
"2108973473","2127244864","0",\N
"2143040687","1493688518","0",\N
"2143040687","1951384579","0",\N
"2143040687","1975362707","0",\N
"2143040687","2081706503","0",\N
"2143040687","2143322095","0",\N
"2143040687","2167514255","0",\N
"2143040687","2752455916","0",\N
"2145240044","130982406","0",\N
"2145240044","1489801117","0",\N
"2145240044","1493688518","0",\N
"2145240044","1649645444","0",\N
"2145240044","1965277101","1",\N
"2145240044","2026482866","0",\N
"2145240044","2045571829","0",\N
"2145240044","2076882443","0",\N
"2145240044","2096653140","0",\N
"2145240044","2118298147","0",\N
"2145240044","2123228824","0",\N
"2145240044","2126798794","0",\N
"2145240044","2143322095","0",\N
"2145240044","2148873812","0",\N
"2145240044","2158579748","0",\N
"2145240044","2169295024","0",\N
"2145240044","2752455916","0",\N
"2145240044","2955158802","0",\N
"2147767687","1501652040","0",\N
"2147767687","1554926315","0",\N
"2147767687","1879840064","0",\N
"2147767687","1986039558","0",\N
"2147767687","2038637763","0",\N
"2147767687","2044929988","0",\N
"2147767687","2053975348","0",\N
"2147767687","2141788117","0",\N
"2147767687","2155629590","0",\N
"2147767687","2164330553","0",\N
"2148023174","1658908529","0",\N
"2148023174","2026759350","0",\N
"2148023174","2035741146","0",\N
"2148023174","2098857020","0",\N
"2148023174","2104577574","0",\N
"2148023174","2113848838","0",\N
"2148023174","2134585351","0",\N
"2148023174","2144363643","0",\N
"2148023174","2341301318","0",\N
"2148023174","72297629","0",\N
"2148947716","1485658078","0",\N
"2148947716","1496386200","0",\N
"2148947716","1514770697","0",\N
"2148947716","1549220645","0",\N
"2148947716","1573502374","0",\N
"2148947716","177483501","0",\N
"2148947716","1806036359","0",\N
"2148947716","1851493524","0",\N
"2148947716","1936022305","0",\N
"2148947716","1982363302","0",\N
"2148947716","2000553295","0",\N
"2148947716","2057136412","0",\N
"2148947716","2067944832","0",\N
"2148947716","2073241702","0",\N
"2148947716","2096792329","0",\N
"2148947716","2103340568","0",\N
"2148947716","2106329424","0",\N
"2148947716","2136251215","0",\N
"2148947716","2149086392","0",\N
"2148947716","2168071394","1",\N
"2148947716","2169580155","0",\N
"2148947716","388901986","0",\N
"2168071394","1492856410","0",\N
"2168071394","1499659938","0",\N
"2168071394","1536020261","0",\N
"2168071394","1536113492","0",\N
"2168071394","1561747893","0",\N
"2168071394","1589638152","0",\N
"2168071394","1752606653","0",\N
"2168071394","1822374113","0",\N
"2168071394","193804812","0",\N
"2168071394","1989591429","0",\N
"2168071394","2007413127","0",\N
"2168071394","2036500097","0",\N
"2168071394","2045571829","0",\N
"2168071394","2045895677","1",\N
"2168071394","2060903226","0",\N
"2168071394","2083449279","0",\N
"2168071394","2120978952","0",\N
"2168071394","2121739066","0",\N
"2168071394","2132454116","0",\N
"2168071394","2135067541","0",\N
"2168071394","2138246933","0",\N
"2168071394","2146061969","0",\N
"2168071394","2150531367","0",\N
"2168071394","2165511017","0",\N
"2168071394","2736974248","0",\N
