"617670330","192293198","1"
"192293198","617670330","1"
"617670330","2063788901","2"
"2063788901","617670330","2"
"617670330","2135798070","8"
"2135798070","617670330","8"
"617670330","2442297968","1"
"2442297968","617670330","1"
"2063788901","2135798070","1"
"2135798070","2063788901","1"
"2063788901","2442297968","1"
"2442297968","2063788901","1"
"2135798070","2442297968","1"
"2442297968","2135798070","1"
"617670330","2169745382","2"
"2169745382","617670330","2"
"617670330","2102375788","1"
"2102375788","617670330","1"
"617670330","2148425697","3"
"2148425697","617670330","3"
"617670330","2245467487","1"
"2245467487","617670330","1"
"617670330","2246410046","1"
"2246410046","617670330","1"
"617670330","2442288135","1"
"2442288135","617670330","1"
"2102375788","2135798070","1"
"2135798070","2102375788","1"
"2102375788","2148425697","1"
"2148425697","2102375788","1"
"2102375788","2245467487","1"
"2245467487","2102375788","1"
"2102375788","2246410046","1"
"2246410046","2102375788","1"
"2102375788","2442288135","1"
"2442288135","2102375788","1"
"2135798070","2148425697","2"
"2148425697","2135798070","2"
"2135798070","2245467487","1"
"2245467487","2135798070","1"
"2135798070","2246410046","1"
"2246410046","2135798070","1"
"2135798070","2442288135","1"
"2442288135","2135798070","1"
"2148425697","2245467487","1"
"2245467487","2148425697","1"
"2148425697","2246410046","1"
"2246410046","2148425697","1"
"2148425697","2442288135","1"
"2442288135","2148425697","1"
"2245467487","2246410046","1"
"2246410046","2245467487","1"
"2245467487","2442288135","1"
"2442288135","2245467487","1"
"2246410046","2442288135","1"
"2442288135","2246410046","1"
"617670330","2614046203","1"
"2614046203","617670330","1"
"617670330","2035224764","1"
"2035224764","617670330","1"
"617670330","2615464551","1"
"2615464551","617670330","1"
"2035224764","2615464551","1"
"2615464551","2035224764","1"
"617670330","2195050966","2"
"2195050966","617670330","2"
"617670330","2401920469","2"
"2401920469","617670330","2"
"2195050966","2401920469","2"
"2401920469","2195050966","2"
"617670330","2104484967","2"
"2104484967","617670330","2"
"617670330","2296449822","2"
"2296449822","617670330","2"
"2104484967","2135798070","2"
"2135798070","2104484967","2"
"2104484967","2296449822","2"
"2296449822","2104484967","2"
"2135798070","2296449822","2"
"2296449822","2135798070","2"
"617670330","2158760032","6"
"2158760032","617670330","6"
"617670330","1981745320","4"
"1981745320","617670330","4"
"617670330","2160218377","4"
"2160218377","617670330","4"
"1981745320","2160218377","2"
"2160218377","1981745320","2"
"617670330","42507994","2"
"42507994","617670330","2"
"617670330","2032008572","2"
"2032008572","617670330","2"
"617670330","2302858353","2"
"2302858353","617670330","2"
"617670330","2496733916","2"
"2496733916","617670330","2"
"42507994","1981745320","2"
"1981745320","42507994","2"
"42507994","2032008572","2"
"2032008572","42507994","2"
"42507994","2302858353","2"
"2302858353","42507994","2"
"42507994","2496733916","2"
"2496733916","42507994","2"
"1981745320","2032008572","2"
"2032008572","1981745320","2"
"1981745320","2302858353","2"
"2302858353","1981745320","2"
"1981745320","2496733916","2"
"2496733916","1981745320","2"
"2032008572","2302858353","2"
"2302858353","2032008572","2"
"2032008572","2496733916","2"
"2496733916","2032008572","2"
"2302858353","2496733916","2"
"2496733916","2302858353","2"
"617670330","2099593719","2"
"2099593719","617670330","2"
"617670330","2297931937","1"
"2297931937","617670330","1"
"617670330","2307902146","3"
"2307902146","617670330","3"
"617670330","2709225061","1"
"2709225061","617670330","1"
"617670330","2779697810","1"
"2779697810","617670330","1"
"2099593719","2135798070","1"
"2135798070","2099593719","1"
"2099593719","2158760032","1"
"2158760032","2099593719","1"
"2099593719","2297931937","1"
"2297931937","2099593719","1"
"2099593719","2307902146","1"
"2307902146","2099593719","1"
"2099593719","2709225061","1"
"2709225061","2099593719","1"
"2099593719","2779697810","1"
"2779697810","2099593719","1"
"2135798070","2158760032","1"
"2158760032","2135798070","1"
"2135798070","2297931937","1"
"2297931937","2135798070","1"
"2135798070","2307902146","3"
"2307902146","2135798070","3"
"2135798070","2709225061","1"
"2709225061","2135798070","1"
"2135798070","2779697810","1"
"2779697810","2135798070","1"
"2158760032","2297931937","1"
"2297931937","2158760032","1"
"2158760032","2307902146","1"
"2307902146","2158760032","1"
"2158760032","2709225061","1"
"2709225061","2158760032","1"
"2158760032","2779697810","1"
"2779697810","2158760032","1"
"2297931937","2307902146","1"
"2307902146","2297931937","1"
"2297931937","2709225061","1"
"2709225061","2297931937","1"
"2297931937","2779697810","1"
"2779697810","2297931937","1"
"2307902146","2709225061","1"
"2709225061","2307902146","1"
"2307902146","2779697810","1"
"2779697810","2307902146","1"
"2709225061","2779697810","1"
"2779697810","2709225061","1"
"617670330","2467733054","1"
"2467733054","617670330","1"
"617670330","2074451410","1"
"2074451410","617670330","1"
"617670330","2167964723","1"
"2167964723","617670330","1"
"2074451410","2167964723","1"
"2167964723","2074451410","1"
"617670330","2159253281","1"
"2159253281","617670330","1"
"617670330","2569629010","1"
"2569629010","617670330","1"
"2159253281","2569629010","1"
"2569629010","2159253281","1"
"617670330","2109751128","2"
"2109751128","617670330","2"
"617670330","2112298508","2"
"2112298508","617670330","2"
"2109751128","2112298508","1"
"2112298508","2109751128","1"
"2109751128","2135798070","2"
"2135798070","2109751128","2"
"2109751128","2307902146","2"
"2307902146","2109751128","2"
"2112298508","2135798070","2"
"2135798070","2112298508","2"
"2112298508","2307902146","1"
"2307902146","2112298508","1"
"617670330","2019929361","2"
"2019929361","617670330","2"
"617670330","2395024022","2"
"2395024022","617670330","2"
"2019929361","2395024022","2"
"2395024022","2019929361","2"
"617670330","2154815632","3"
"2154815632","617670330","3"
"2154815632","2158760032","2"
"2158760032","2154815632","2"
"617670330","2104800518","1"
"2104800518","617670330","1"
"2104800518","2109751128","1"
"2109751128","2104800518","1"
"2104800518","2135798070","1"
"2135798070","2104800518","1"
"2104800518","2307902146","1"
"2307902146","2104800518","1"
"2112298508","2148425697","1"
"2148425697","2112298508","1"
"617670330","2426295800","1"
"2426295800","617670330","1"
"2154815632","2160218377","1"
"2160218377","2154815632","1"
"2154815632","2426295800","1"
"2426295800","2154815632","1"
"2160218377","2426295800","1"
"2426295800","2160218377","1"
"617670330","1313188078","2"
"1313188078","617670330","2"
"617670330","1972291593","2"
"1972291593","617670330","2"
"617670330","2224599527","1"
"2224599527","617670330","1"
"617670330","2469620852","2"
"2469620852","617670330","2"
"1313188078","1972291593","2"
"1972291593","1313188078","2"
"1313188078","2224599527","1"
"2224599527","1313188078","1"
"1313188078","2469620852","2"
"2469620852","1313188078","2"
"1972291593","2224599527","1"
"2224599527","1972291593","1"
"1972291593","2469620852","2"
"2469620852","1972291593","2"
"2224599527","2469620852","1"
"2469620852","2224599527","1"
"617670330","2122351653","1"
"2122351653","617670330","1"
"617670330","2478822375","1"
"2478822375","617670330","1"
"2122351653","2158760032","1"
"2158760032","2122351653","1"
"2122351653","2478822375","1"
"2478822375","2122351653","1"
"2158760032","2478822375","1"
"2478822375","2158760032","1"
"617670330","2096884534","2"
"2096884534","617670330","2"
"617670330","2690792437","1"
"2690792437","617670330","1"
"2195050966","2690792437","1"
"2690792437","2195050966","1"
"2401920469","2690792437","1"
"2690792437","2401920469","1"
"617670330","2112318893","1"
"2112318893","617670330","1"
"617670330","2239241780","1"
"2239241780","617670330","1"
"2112318893","2239241780","1"
"2239241780","2112318893","1"
"617670330","2106882380","1"
"2106882380","617670330","1"
"2106882380","2148425697","1"
"2148425697","2106882380","1"
"617670330","1919135125","1"
"1919135125","617670330","1"
"617670330","1966289759","1"
"1966289759","617670330","1"
"617670330","2086114595","1"
"2086114595","617670330","1"
"1919135125","1966289759","1"
"1966289759","1919135125","1"
"1919135125","2086114595","1"
"2086114595","1919135125","1"
"1966289759","2086114595","1"
"2086114595","1966289759","1"
"617670330","2108993706","1"
"2108993706","617670330","1"
"617670330","2278341994","1"
"2278341994","617670330","1"
"2108993706","2278341994","1"
"2278341994","2108993706","1"
"617670330","1902613859","1"
"1902613859","617670330","1"
"617670330","2090778435","1"
"2090778435","617670330","1"
"617670330","2666407526","1"
"2666407526","617670330","1"
"617670330","2722696746","1"
"2722696746","617670330","1"
"1902613859","2090778435","1"
"2090778435","1902613859","1"
"1902613859","2104484967","1"
"2104484967","1902613859","1"
"1902613859","2135798070","1"
"2135798070","1902613859","1"
"1902613859","2296449822","1"
"2296449822","1902613859","1"
"1902613859","2666407526","1"
"2666407526","1902613859","1"
"1902613859","2722696746","1"
"2722696746","1902613859","1"
"2090778435","2104484967","1"
"2104484967","2090778435","1"
"2090778435","2135798070","1"
"2135798070","2090778435","1"
"2090778435","2296449822","1"
"2296449822","2090778435","1"
"2090778435","2666407526","1"
"2666407526","2090778435","1"
"2090778435","2722696746","1"
"2722696746","2090778435","1"
"2104484967","2666407526","1"
"2666407526","2104484967","1"
"2104484967","2722696746","1"
"2722696746","2104484967","1"
"2135798070","2666407526","1"
"2666407526","2135798070","1"
"2135798070","2722696746","1"
"2722696746","2135798070","1"
"2296449822","2666407526","1"
"2666407526","2296449822","1"
"2296449822","2722696746","1"
"2722696746","2296449822","1"
"2666407526","2722696746","1"
"2722696746","2666407526","1"
"617670330","2627022177","1"
"2627022177","617670330","1"
"2096884534","2627022177","1"
"2627022177","2096884534","1"
"617670330","221632645","1"
"221632645","617670330","1"
"617670330","2087818877","1"
"2087818877","617670330","1"
"617670330","2108286279","1"
"2108286279","617670330","1"
"617670330","2623599435","1"
"2623599435","617670330","1"
"617670330","2736812006","1"
"2736812006","617670330","1"
"617670330","2809914901","1"
"2809914901","617670330","1"
"221632645","2087818877","1"
"2087818877","221632645","1"
"221632645","2099593719","1"
"2099593719","221632645","1"
"221632645","2108286279","1"
"2108286279","221632645","1"
"221632645","2623599435","1"
"2623599435","221632645","1"
"221632645","2736812006","1"
"2736812006","221632645","1"
"221632645","2809914901","1"
"2809914901","221632645","1"
"2087818877","2099593719","1"
"2099593719","2087818877","1"
"2087818877","2108286279","1"
"2108286279","2087818877","1"
"2087818877","2623599435","1"
"2623599435","2087818877","1"
"2087818877","2736812006","1"
"2736812006","2087818877","1"
"2087818877","2809914901","1"
"2809914901","2087818877","1"
"2099593719","2108286279","1"
"2108286279","2099593719","1"
"2099593719","2623599435","1"
"2623599435","2099593719","1"
"2099593719","2736812006","1"
"2736812006","2099593719","1"
"2099593719","2809914901","1"
"2809914901","2099593719","1"
"2108286279","2623599435","1"
"2623599435","2108286279","1"
"2108286279","2736812006","1"
"2736812006","2108286279","1"
"2108286279","2809914901","1"
"2809914901","2108286279","1"
"2623599435","2736812006","1"
"2736812006","2623599435","1"
"2623599435","2809914901","1"
"2809914901","2623599435","1"
"2736812006","2809914901","1"
"2809914901","2736812006","1"
"617670330","297432538","1"
"297432538","617670330","1"
"297432538","1313188078","1"
"1313188078","297432538","1"
"297432538","1972291593","1"
"1972291593","297432538","1"
"297432538","2469620852","1"
"2469620852","297432538","1"
