"2113167267","2116571480","7"
"2116571480","2113167267","7"
"2113167267","1998011867","4"
"1998011867","2113167267","4"
"2113167267","2151626457","3"
"2151626457","2113167267","3"
"2113167267","2591622916","1"
"2591622916","2113167267","1"
"1998011867","2116571480","3"
"2116571480","1998011867","3"
"1998011867","2151626457","3"
"2151626457","1998011867","3"
"1998011867","2591622916","1"
"2591622916","1998011867","1"
"2116571480","2151626457","3"
"2151626457","2116571480","3"
"2116571480","2591622916","1"
"2591622916","2116571480","1"
"2151626457","2591622916","1"
"2591622916","2151626457","1"
"2113167267","2189704432","1"
"2189704432","2113167267","1"
"2113167267","2492783738","1"
"2492783738","2113167267","1"
"2189704432","2492783738","1"
"2492783738","2189704432","1"
"2113167267","1754925966","14"
"1754925966","2113167267","14"
"2113167267","2083847830","15"
"2083847830","2113167267","15"
"2113167267","2305674408","4"
"2305674408","2113167267","4"
"1754925966","2083847830","11"
"2083847830","1754925966","11"
"1754925966","2305674408","3"
"2305674408","1754925966","3"
"2083847830","2305674408","4"
"2305674408","2083847830","4"
"2113167267","2148300872","10"
"2148300872","2113167267","10"
"2113167267","616997130","1"
"616997130","2113167267","1"
"616997130","2083847830","1"
"2083847830","616997130","1"
"2113167267","1509523715","1"
"1509523715","2113167267","1"
"2113167267","1925675749","1"
"1925675749","2113167267","1"
"2113167267","2082038392","1"
"2082038392","2113167267","1"
"1509523715","1925675749","1"
"1925675749","1509523715","1"
"1509523715","2082038392","1"
"2082038392","1509523715","1"
"1925675749","2082038392","1"
"2082038392","1925675749","1"
"2113167267","1839273820","2"
"1839273820","2113167267","2"
"2113167267","2071414510","1"
"2071414510","2113167267","1"
"1839273820","2071414510","1"
"2071414510","1839273820","1"
"2113167267","2020187970","4"
"2020187970","2113167267","4"
"1998011867","2020187970","1"
"2020187970","1998011867","1"
"2113167267","2022897428","2"
"2022897428","2113167267","2"
"2113167267","2154623988","2"
"2154623988","2113167267","2"
"2022897428","2154623988","2"
"2154623988","2022897428","2"
"2113167267","1966418140","6"
"1966418140","2113167267","6"
"2113167267","2220328732","1"
"2220328732","2113167267","1"
"1754925966","2220328732","1"
"2220328732","1754925966","1"
"2083847830","2220328732","1"
"2220328732","2083847830","1"
"2113167267","2893429438","3"
"2893429438","2113167267","3"
"2113167267","1985901813","2"
"1985901813","2113167267","2"
"2113167267","2080838120","1"
"2080838120","2113167267","1"
"2113167267","2150927402","1"
"2150927402","2113167267","1"
"2080838120","2150927402","1"
"2150927402","2080838120","1"
"2113167267","2168084652","1"
"2168084652","2113167267","1"
"2113167267","2422144055","2"
"2422144055","2113167267","2"
"2083847830","2168084652","1"
"2168084652","2083847830","1"
"2083847830","2422144055","1"
"2422144055","2083847830","1"
"2168084652","2422144055","1"
"2422144055","2168084652","1"
"2148300872","2422144055","1"
"2422144055","2148300872","1"
"2113167267","877212317","1"
"877212317","2113167267","1"
"2113167267","1929863646","1"
"1929863646","2113167267","1"
"877212317","1929863646","1"
"1929863646","877212317","1"
"2113167267","2126395520","5"
"2126395520","2113167267","5"
"2113167267","2211560056","2"
"2211560056","2113167267","2"
"2113167267","2309332247","2"
"2309332247","2113167267","2"
"2126395520","2211560056","2"
"2211560056","2126395520","2"
"2126395520","2309332247","2"
"2309332247","2126395520","2"
"2211560056","2309332247","2"
"2309332247","2211560056","2"
"2113167267","2053192554","3"
"2053192554","2113167267","3"
"2113167267","1921565634","1"
"1921565634","2113167267","1"
"2113167267","2021283816","1"
"2021283816","2113167267","1"
"1921565634","2021283816","1"
"2021283816","1921565634","1"
"1839273820","1966418140","1"
"1966418140","1839273820","1"
"2020187970","2126395520","2"
"2126395520","2020187970","2"
"2083847830","2893429438","1"
"2893429438","2083847830","1"
"2113167267","41840410","1"
"41840410","2113167267","1"
"2113167267","1983336753","1"
"1983336753","2113167267","1"
"41840410","1983336753","1"
"1983336753","41840410","1"
"2113167267","2244973082","1"
"2244973082","2113167267","1"
"2053192554","2244973082","1"
"2244973082","2053192554","1"
"2113167267","1990999368","1"
"1990999368","2113167267","1"
"2113167267","2942163900","1"
"2942163900","2113167267","1"
"1990999368","2942163900","1"
"2942163900","1990999368","1"
"2113167267","2167845190","1"
"2167845190","2113167267","1"
"1754925966","2020187970","1"
"2020187970","1754925966","1"
"2020187970","2083847830","1"
"2083847830","2020187970","1"
"2113167267","1999003827","1"
"1999003827","2113167267","1"
"2113167267","2478192948","1"
"2478192948","2113167267","1"
"1754925966","1999003827","1"
"1999003827","1754925966","1"
"1754925966","2478192948","1"
"2478192948","1754925966","1"
"1999003827","2478192948","1"
"2478192948","1999003827","1"
"2113167267","1221620400","1"
"1221620400","2113167267","1"
"2113167267","1205553013","2"
"1205553013","2113167267","2"
"1205553013","2116571480","1"
"2116571480","1205553013","1"
"2113167267","104544227","1"
"104544227","2113167267","1"
"2113167267","2255654281","1"
"2255654281","2113167267","1"
"104544227","2255654281","1"
"2255654281","104544227","1"
"1985901813","2020187970","1"
"2020187970","1985901813","1"
"1985901813","2126395520","1"
"2126395520","1985901813","1"
"2113167267","28322067","1"
"28322067","2113167267","1"
"2113167267","2121644303","2"
"2121644303","2113167267","2"
"2113167267","2134963268","1"
"2134963268","2113167267","1"
"28322067","1754925966","1"
"1754925966","28322067","1"
"28322067","2083847830","1"
"2083847830","28322067","1"
"28322067","2121644303","1"
"2121644303","28322067","1"
"28322067","2134963268","1"
"2134963268","28322067","1"
"1754925966","2121644303","2"
"2121644303","1754925966","2"
"1754925966","2134963268","1"
"2134963268","1754925966","1"
"2083847830","2121644303","1"
"2121644303","2083847830","1"
"2083847830","2134963268","1"
"2134963268","2083847830","1"
"2121644303","2134963268","1"
"2134963268","2121644303","1"
"2113167267","1158668427","1"
"1158668427","2113167267","1"
"2113167267","2754844485","1"
"2754844485","2113167267","1"
"1158668427","1754925966","1"
"1754925966","1158668427","1"
"1158668427","2754844485","1"
"2754844485","1158668427","1"
"1754925966","2754844485","1"
"2754844485","1754925966","1"
"2116571480","2126395520","1"
"2126395520","2116571480","1"
"2113167267","2927979046","1"
"2927979046","2113167267","1"
"1754925966","2927979046","1"
"2927979046","1754925966","1"
"2121644303","2927979046","1"
"2927979046","2121644303","1"
"2113167267","2786907102","3"
"2786907102","2113167267","3"
"1205553013","2786907102","1"
"2786907102","1205553013","1"
"2113167267","2941495140","1"
"2941495140","2113167267","1"
"2113167267","2785656161","2"
"2785656161","2113167267","2"
"1966418140","2785656161","1"
"2785656161","1966418140","1"
"1966418140","2786907102","1"
"2786907102","1966418140","1"
"2785656161","2786907102","2"
"2786907102","2785656161","2"
"2113167267","2898682563","1"
"2898682563","2113167267","1"
