"1482124653","1972359875","4.46978"
"1972359875","1482124653","4.46978"
"1482124653","2062499875","3.41422"
"2062499875","1482124653","3.41422"
"1482124653","2159456281","1.01978"
"2159456281","1482124653","1.01978"
"1482124653","2168854766","1.86422"
"2168854766","1482124653","1.86422"
"1972359875","2062499875","11.1698"
"2062499875","1972359875","11.1698"
"1972359875","2159456281","2.43645"
"2159456281","1972359875","2.43645"
"1972359875","2168854766","7.36978"
"2168854766","1972359875","7.36978"
"2062499875","2159456281","2.01978"
"2159456281","2062499875","2.01978"
"2062499875","2168854766","2.78089"
"2168854766","2062499875","2.78089"
"2159456281","2168854766","0.91978"
"2168854766","2159456281","0.91978"
"1482124653","1494658578","0.3"
"1494658578","1482124653","0.3"
"1482124653","1969664386","0.3"
"1969664386","1482124653","0.3"
"1482124653","2011741072","0.3"
"2011741072","1482124653","0.3"
"1494658578","1969664386","1.41667"
"1969664386","1494658578","1.41667"
"1494658578","1972359875","2.75"
"1972359875","1494658578","2.75"
"1494658578","2011741072","2.16667"
"2011741072","1494658578","2.16667"
"1494658578","2062499875","2.3"
"2062499875","1494658578","2.3"
"1969664386","1972359875","3.28333"
"1972359875","1969664386","3.28333"
"1969664386","2011741072","4.53333"
"2011741072","1969664386","4.53333"
"1969664386","2062499875","1.83333"
"2062499875","1969664386","1.83333"
"1972359875","2011741072","5.67619"
"2011741072","1972359875","5.67619"
"2011741072","2062499875","3.16667"
"2062499875","2011741072","3.16667"
"1482124653","2121947731","0.333333"
"2121947731","1482124653","0.333333"
"1482124653","2131433770","1.6047"
"2131433770","1482124653","1.6047"
"1972359875","2121947731","0.533333"
"2121947731","1972359875","0.533333"
"1972359875","2131433770","1.32692"
"2131433770","1972359875","1.32692"
"2121947731","2131433770","0.833333"
"2131433770","2121947731","0.833333"
"1482124653","1553635298","0.0769231"
"1553635298","1482124653","0.0769231"
"1482124653","1697827404","0.736447"
"1697827404","1482124653","0.736447"
"1482124653","1877220956","1.09756"
"1877220956","1482124653","1.09756"
"1482124653","2019575603","0.538034"
"2019575603","1482124653","0.538034"
"1482124653","2053965530","0.688034"
"2053965530","1482124653","0.688034"
"1482124653","2081556881","0.521368"
"2081556881","1482124653","0.521368"
"1482124653","2159792176","0.276923"
"2159792176","1482124653","0.276923"
"1482124653","2961365500","0.0769231"
"2961365500","1482124653","0.0769231"
"1553635298","1697827404","0.0769231"
"1697827404","1553635298","0.0769231"
"1553635298","1877220956","0.0769231"
"1877220956","1553635298","0.0769231"
"1553635298","1972359875","0.0769231"
"1972359875","1553635298","0.0769231"
"1553635298","2019575603","0.0769231"
"2019575603","1553635298","0.0769231"
"1553635298","2053965530","0.0769231"
"2053965530","1553635298","0.0769231"
"1553635298","2062499875","0.0769231"
"2062499875","1553635298","0.0769231"
"1553635298","2081556881","3.80311"
"2081556881","1553635298","3.80311"
"1553635298","2131433770","0.0769231"
"2131433770","1553635298","0.0769231"
"1553635298","2159456281","0.0769231"
"2159456281","1553635298","0.0769231"
"1553635298","2159792176","0.326923"
"2159792176","1553635298","0.326923"
"1553635298","2168854766","1.16026"
"2168854766","1553635298","1.16026"
"1553635298","2961365500","0.0769231"
"2961365500","1553635298","0.0769231"
"1697827404","1877220956","1.56978"
"1877220956","1697827404","1.56978"
"1697827404","1972359875","0.986447"
"1972359875","1697827404","0.986447"
"1697827404","2019575603","0.710256"
"2019575603","1697827404","0.710256"
"1697827404","2053965530","0.660256"
"2053965530","1697827404","0.660256"
"1697827404","2062499875","0.31978"
"2062499875","1697827404","0.31978"
"1697827404","2081556881","0.0769231"
"2081556881","1697827404","0.0769231"
"1697827404","2131433770","2.77692"
"2131433770","1697827404","2.77692"
"1697827404","2159456281","0.56978"
"2159456281","1697827404","0.56978"
"1697827404","2159792176","0.276923"
"2159792176","1697827404","0.276923"
"1697827404","2168854766","1.75311"
"2168854766","1697827404","1.75311"
"1697827404","2961365500","0.0769231"
"2961365500","1697827404","0.0769231"
"1877220956","1972359875","1.1293"
"1972359875","1877220956","1.1293"
"1877220956","2019575603","0.514225"
"2019575603","1877220956","0.514225"
"1877220956","2053965530","3.16422"
"2053965530","1877220956","3.16422"
"1877220956","2062499875","0.430891"
"2062499875","1877220956","0.430891"
"1877220956","2081556881","0.188034"
"2081556881","1877220956","0.188034"
"1877220956","2131433770","1.77137"
"2131433770","1877220956","1.77137"
"1877220956","2159456281","0.56978"
"2159456281","1877220956","0.56978"
"1877220956","2159792176","0.0769231"
"2159792176","1877220956","0.0769231"
"1877220956","2168854766","0.830891"
"2168854766","1877220956","0.830891"
"1877220956","2961365500","0.0769231"
"2961365500","1877220956","0.0769231"
"1972359875","2019575603","0.31978"
"2019575603","1972359875","0.31978"
"1972359875","2053965530","0.71978"
"2053965530","1972359875","0.71978"
"1972359875","2081556881","0.0769231"
"2081556881","1972359875","0.0769231"
"1972359875","2159792176","2.27692"
"2159792176","1972359875","2.27692"
"1972359875","2961365500","0.0769231"
"2961365500","1972359875","0.0769231"
"2019575603","2053965530","0.414225"
"2053965530","2019575603","0.414225"
"2019575603","2062499875","0.288034"
"2062499875","2019575603","0.288034"
"2019575603","2081556881","0.188034"
"2081556881","2019575603","0.188034"
"2019575603","2131433770","2.22137"
"2131433770","2019575603","2.22137"
"2019575603","2159456281","0.176923"
"2159456281","2019575603","0.176923"
"2019575603","2159792176","0.276923"
"2159792176","2019575603","0.276923"
"2019575603","2168854766","1.63803"
"2168854766","2019575603","1.63803"
"2019575603","2961365500","0.0769231"
"2961365500","2019575603","0.0769231"
"2053965530","2062499875","0.188034"
"2062499875","2053965530","0.188034"
"2053965530","2081556881","0.188034"
"2081556881","2053965530","0.188034"
"2053965530","2131433770","1.77137"
"2131433770","2053965530","1.77137"
"2053965530","2159456281","0.326923"
"2159456281","2053965530","0.326923"
"2053965530","2159792176","0.0769231"
"2159792176","2053965530","0.0769231"
"2053965530","2168854766","0.604701"
"2168854766","2053965530","0.604701"
"2053965530","2961365500","0.24359"
"2961365500","2053965530","0.24359"
"2062499875","2081556881","0.521368"
"2081556881","2062499875","0.521368"
"2062499875","2131433770","0.521368"
"2131433770","2062499875","0.521368"
"2062499875","2159792176","0.276923"
"2159792176","2062499875","0.276923"
"2062499875","2961365500","0.0769231"
"2961365500","2062499875","0.0769231"
"2081556881","2131433770","0.521368"
"2131433770","2081556881","0.521368"
"2081556881","2159456281","0.0769231"
"2159456281","2081556881","0.0769231"
"2081556881","2159792176","0.326923"
"2159792176","2081556881","0.326923"
"2081556881","2168854766","1.27137"
"2168854766","2081556881","1.27137"
"2081556881","2961365500","0.0769231"
"2961365500","2081556881","0.0769231"
"2131433770","2159456281","0.576923"
"2159456281","2131433770","0.576923"
"2131433770","2159792176","0.276923"
"2159792176","2131433770","0.276923"
"2131433770","2168854766","1.8047"
"2168854766","2131433770","1.8047"
"2131433770","2961365500","0.24359"
"2961365500","2131433770","0.24359"
"2159456281","2159792176","0.276923"
"2159792176","2159456281","0.276923"
"2159456281","2961365500","0.0769231"
"2961365500","2159456281","0.0769231"
"2159792176","2168854766","11.2269"
"2168854766","2159792176","11.2269"
"2159792176","2961365500","0.0769231"
"2961365500","2159792176","0.0769231"
"2168854766","2961365500","0.24359"
"2961365500","2168854766","0.24359"
"1482124653","1808466474","0.333333"
"1808466474","1482124653","0.333333"
"1482124653","2120323927","0.333333"
"2120323927","1482124653","0.333333"
"1808466474","2120323927","0.333333"
"2120323927","1808466474","0.333333"
"1808466474","2168854766","0.583333"
"2168854766","1808466474","0.583333"
"2120323927","2168854766","0.333333"
"2168854766","2120323927","0.333333"
"1482124653","2057728405","0.853968"
"2057728405","1482124653","0.853968"
"1494658578","1697827404","0.1"
"1697827404","1494658578","0.1"
"1494658578","1877220956","0.1"
"1877220956","1494658578","0.1"
"1494658578","2019575603","0.1"
"2019575603","1494658578","0.1"
"1494658578","2057728405","0.1"
"2057728405","1494658578","0.1"
"1494658578","2159456281","0.1"
"2159456281","1494658578","0.1"
"1697827404","1969664386","0.1"
"1969664386","1697827404","0.1"
"1697827404","2011741072","0.6"
"2011741072","1697827404","0.6"
"1697827404","2057728405","1.49286"
"2057728405","1697827404","1.49286"
"1877220956","1969664386","0.1"
"1969664386","1877220956","0.1"
"1877220956","2011741072","0.242857"
"2011741072","1877220956","0.242857"
"1877220956","2057728405","3.91349"
"2057728405","1877220956","3.91349"
"1969664386","2019575603","0.1"
"2019575603","1969664386","0.1"
"1969664386","2057728405","0.6"
"2057728405","1969664386","0.6"
"1969664386","2159456281","0.1"
"2159456281","1969664386","0.1"
"1972359875","2057728405","2.05238"
"2057728405","1972359875","2.05238"
"2011741072","2019575603","1.24286"
"2019575603","2011741072","1.24286"
"2011741072","2057728405","1.24286"
"2057728405","2011741072","1.24286"
"2011741072","2159456281","0.933333"
"2159456281","2011741072","0.933333"
"2019575603","2057728405","0.437302"
"2057728405","2019575603","0.437302"
"2057728405","2062499875","0.353968"
"2062499875","2057728405","0.353968"
"2057728405","2159456281","0.242857"
"2159456281","2057728405","0.242857"
"2057728405","2168854766","0.920635"
"2168854766","2057728405","0.920635"
"1482124653","2593144968","0.166667"
"2593144968","1482124653","0.166667"
"1697827404","2593144968","1.25"
"2593144968","1697827404","1.25"
"1877220956","2593144968","0.25"
"2593144968","1877220956","0.25"
"1972359875","2593144968","0.166667"
"2593144968","1972359875","0.166667"
"2057728405","2131433770","0.861111"
"2131433770","2057728405","0.861111"
"2057728405","2593144968","0.5"
"2593144968","2057728405","0.5"
"2131433770","2593144968","0.25"
"2593144968","2131433770","0.25"
"1482124653","2253404081","0.111111"
"2253404081","1482124653","0.111111"
"1877220956","2253404081","0.111111"
"2253404081","1877220956","0.111111"
"2019575603","2253404081","0.111111"
"2253404081","2019575603","0.111111"
"2053965530","2057728405","1.42063"
"2057728405","2053965530","1.42063"
"2053965530","2253404081","0.111111"
"2253404081","2053965530","0.111111"
"2057728405","2081556881","0.111111"
"2081556881","2057728405","0.111111"
"2057728405","2253404081","0.111111"
"2253404081","2057728405","0.111111"
"2062499875","2253404081","0.111111"
"2253404081","2062499875","0.111111"
"2081556881","2253404081","0.111111"
"2253404081","2081556881","0.111111"
"2131433770","2253404081","0.111111"
"2253404081","2131433770","0.111111"
"2168854766","2253404081","0.111111"
"2253404081","2168854766","0.111111"
"1482124653","2097159626","0.25"
"2097159626","1482124653","0.25"
"1972359875","2097159626","0.642857"
"2097159626","1972359875","0.642857"
"2062499875","2097159626","0.25"
"2097159626","2062499875","0.25"
"2097159626","2168854766","1"
"2168854766","2097159626","1"
"1482124653","1989717902","0.333333"
"1989717902","1482124653","0.333333"
"1989717902","2057728405","0.333333"
"2057728405","1989717902","0.333333"
"1989717902","2131433770","0.333333"
"2131433770","1989717902","0.333333"
"1483331743","2073522142","1.33333"
"2073522142","1483331743","1.33333"
"1483331743","2602934762","0.333333"
"2602934762","1483331743","0.333333"
"1483331743","2788272508","0.333333"
"2788272508","1483331743","0.333333"
"2073522142","2602934762","0.333333"
"2602934762","2073522142","0.333333"
"2073522142","2788272508","0.333333"
"2788272508","2073522142","0.333333"
"2602934762","2788272508","19.3333"
"2788272508","2602934762","19.3333"
"1485273397","1972359875","0.5"
"1972359875","1485273397","0.5"
"1485273397","2168854766","1.7"
"2168854766","1485273397","1.7"
"1485273397","2143272542","5.80952"
"2143272542","1485273397","5.80952"
"1485273397","1900605662","0.5"
"1900605662","1485273397","0.5"
"1900605662","2143272542","0.5"
"2143272542","1900605662","0.5"
"1485273397","1855230611","1"
"1855230611","1485273397","1"
"1485273397","2058335191","3.30952"
"2058335191","1485273397","3.30952"
"2058335191","2143272542","1.80952"
"2143272542","2058335191","1.80952"
"1485273397","2010224306","2"
"2010224306","1485273397","2"
"1485273397","1553635298","0.142857"
"1553635298","1485273397","0.142857"
"1485273397","2034717219","0.142857"
"2034717219","1485273397","0.142857"
"1485273397","2038350468","0.309524"
"2038350468","1485273397","0.309524"
"1485273397","2081556881","0.142857"
"2081556881","1485273397","0.142857"
"1485273397","2133060220","1.30952"
"2133060220","1485273397","1.30952"
"1553635298","2034717219","0.142857"
"2034717219","1553635298","0.142857"
"1553635298","2038350468","0.47619"
"2038350468","1553635298","0.47619"
"1553635298","2058335191","0.142857"
"2058335191","1553635298","0.142857"
"1553635298","2133060220","0.142857"
"2133060220","1553635298","0.142857"
"1553635298","2143272542","0.642857"
"2143272542","1553635298","0.642857"
"2034717219","2038350468","5.47619"
"2038350468","2034717219","5.47619"
"2034717219","2058335191","0.142857"
"2058335191","2034717219","0.142857"
"2034717219","2081556881","0.142857"
"2081556881","2034717219","0.142857"
"2034717219","2133060220","0.47619"
"2133060220","2034717219","0.47619"
"2034717219","2143272542","0.142857"
"2143272542","2034717219","0.142857"
"2038350468","2058335191","0.309524"
"2058335191","2038350468","0.309524"
"2038350468","2081556881","1.47619"
"2081556881","2038350468","1.47619"
"2038350468","2133060220","0.642857"
"2133060220","2038350468","0.642857"
"2038350468","2143272542","0.309524"
"2143272542","2038350468","0.309524"
"2058335191","2081556881","0.142857"
"2081556881","2058335191","0.142857"
"2058335191","2133060220","1.80952"
"2133060220","2058335191","1.80952"
"2081556881","2133060220","0.142857"
"2133060220","2081556881","0.142857"
"2081556881","2143272542","0.642857"
"2143272542","2081556881","0.642857"
"2133060220","2143272542","0.809524"
"2143272542","2133060220","0.809524"
"1485273397","2131433770","1.2"
"2131433770","1485273397","1.2"
"1485273397","1697827404","0.2"
"1697827404","1485273397","0.2"
"1485273397","2019575603","0.2"
"2019575603","1485273397","0.2"
"1485273397","2159792176","0.2"
"2159792176","1485273397","0.2"
"1485273397","2121947731","0.166667"
"2121947731","1485273397","0.166667"
"1485273397","2159456281","0.166667"
"2159456281","1485273397","0.166667"
"2038350468","2121947731","0.166667"
"2121947731","2038350468","0.166667"
"2038350468","2159456281","0.166667"
"2159456281","2038350468","0.166667"
"2058335191","2121947731","0.166667"
"2121947731","2058335191","0.166667"
"2058335191","2159456281","0.166667"
"2159456281","2058335191","0.166667"
"2121947731","2133060220","0.166667"
"2133060220","2121947731","0.166667"
"2121947731","2143272542","0.166667"
"2143272542","2121947731","0.166667"
"2121947731","2159456281","0.166667"
"2159456281","2121947731","0.166667"
"2133060220","2159456281","0.166667"
"2159456281","2133060220","0.166667"
"2143272542","2159456281","0.166667"
"2159456281","2143272542","0.166667"
"1494658578","1968114112","0.25"
"1968114112","1494658578","0.25"
"1494658578","2071201575","0.25"
"2071201575","1494658578","0.25"
"1968114112","1969664386","0.25"
"1969664386","1968114112","0.25"
"1968114112","1972359875","1.25"
"1972359875","1968114112","1.25"
"1968114112","2071201575","3.58333"
"2071201575","1968114112","3.58333"
"1969664386","2071201575","0.25"
"2071201575","1969664386","0.25"
"1972359875","2071201575","2.25"
"2071201575","1972359875","2.25"
"1494658578","2077688598","0.533333"
"2077688598","1494658578","0.533333"
"1494658578","2168854766","0.2"
"2168854766","1494658578","0.2"
"1969664386","2077688598","0.4"
"2077688598","1969664386","0.4"
"1969664386","2168854766","0.2"
"2168854766","1969664386","0.2"
"1972359875","2077688598","5.06667"
"2077688598","1972359875","5.06667"
"2011741072","2077688598","1.23333"
"2077688598","2011741072","1.23333"
"2011741072","2168854766","0.2"
"2168854766","2011741072","0.2"
"2077688598","2168854766","0.2"
"2168854766","2077688598","0.2"
"1494658578","2006422400","0.333333"
"2006422400","1494658578","0.333333"
"1969664386","2006422400","0.333333"
"2006422400","1969664386","0.333333"
"2006422400","2062499875","0.833333"
"2062499875","2006422400","0.833333"
"2062499875","2077688598","1.03333"
"2077688598","2062499875","1.03333"
"1503549015","1598694436","12.5833"
"1598694436","1503549015","12.5833"
"1503549015","1808466474","4.25"
"1808466474","1503549015","4.25"
"1598694436","1808466474","5.25"
"1808466474","1598694436","5.25"
"1503549015","1900605662","1.08333"
"1900605662","1503549015","1.08333"
"1503549015","2168854766","0.583333"
"2168854766","1503549015","0.583333"
"1598694436","1900605662","1.08333"
"1900605662","1598694436","1.08333"
"1598694436","2168854766","0.583333"
"2168854766","1598694436","0.583333"
"1808466474","1900605662","0.583333"
"1900605662","1808466474","0.583333"
"1900605662","2168854766","0.833333"
"2168854766","1900605662","0.833333"
"1503549015","1868343849","0.666667"
"1868343849","1503549015","0.666667"
"1598694436","1868343849","0.666667"
"1868343849","1598694436","0.666667"
"1808466474","1868343849","0.333333"
"1868343849","1808466474","0.333333"
"1503549015","2534452010","0.833333"
"2534452010","1503549015","0.833333"
"1598694436","2534452010","0.833333"
"2534452010","1598694436","0.833333"
"1808466474","2534452010","0.333333"
"2534452010","1808466474","0.333333"
"1868343849","2168854766","0.333333"
"2168854766","1868343849","0.333333"
"2038350468","2168854766","0.833333"
"2168854766","2038350468","0.833333"
"1553635298","2121947731","0.25"
"2121947731","1553635298","0.25"
"2081556881","2121947731","0.25"
"2121947731","2081556881","0.25"
"2121947731","2159792176","0.25"
"2159792176","2121947731","0.25"
"2121947731","2168854766","1.25"
"2168854766","2121947731","1.25"
"1558881891","1980388712","0.0714286"
"1980388712","1558881891","0.0714286"
"1558881891","2158508691","0.0714286"
"2158508691","1558881891","0.0714286"
"1558881891","2253404081","0.0714286"
"2253404081","1558881891","0.0714286"
"1558881891","2346581999","0.0714286"
"2346581999","1558881891","0.0714286"
"1558881891","2534333377","0.0714286"
"2534333377","1558881891","0.0714286"
"1558881891","2534452010","0.0714286"
"2534452010","1558881891","0.0714286"
"1558881891","2537162365","0.0714286"
"2537162365","1558881891","0.0714286"
"1558881891","2602934762","0.571429"
"2602934762","1558881891","0.571429"
"1558881891","2611953330","0.0714286"
"2611953330","1558881891","0.0714286"
"1558881891","2793264686","0.0714286"
"2793264686","1558881891","0.0714286"
"1558881891","2796434639","0.0714286"
"2796434639","1558881891","0.0714286"
"1558881891","2889405695","0.0714286"
"2889405695","1558881891","0.0714286"
"1558881891","2913848260","0.0714286"
"2913848260","1558881891","0.0714286"
"1558881891","2940809232","0.0714286"
"2940809232","1558881891","0.0714286"
"1980388712","2158508691","0.571429"
"2158508691","1980388712","0.571429"
"1980388712","2253404081","0.0714286"
"2253404081","1980388712","0.0714286"
"1980388712","2346581999","0.0714286"
"2346581999","1980388712","0.0714286"
"1980388712","2534333377","0.0714286"
"2534333377","1980388712","0.0714286"
"1980388712","2534452010","2.57143"
"2534452010","1980388712","2.57143"
"1980388712","2537162365","0.238095"
"2537162365","1980388712","0.238095"
"1980388712","2602934762","0.0714286"
"2602934762","1980388712","0.0714286"
"1980388712","2611953330","0.0714286"
"2611953330","1980388712","0.0714286"
"1980388712","2793264686","0.0714286"
"2793264686","1980388712","0.0714286"
"1980388712","2796434639","0.0714286"
"2796434639","1980388712","0.0714286"
"1980388712","2889405695","0.0714286"
"2889405695","1980388712","0.0714286"
"1980388712","2913848260","0.571429"
"2913848260","1980388712","0.571429"
"1980388712","2940809232","0.0714286"
"2940809232","1980388712","0.0714286"
"2158508691","2253404081","0.0714286"
"2253404081","2158508691","0.0714286"
"2158508691","2346581999","0.0714286"
"2346581999","2158508691","0.0714286"
"2158508691","2534333377","0.0714286"
"2534333377","2158508691","0.0714286"
"2158508691","2534452010","2.07143"
"2534452010","2158508691","2.07143"
"2158508691","2537162365","0.238095"
"2537162365","2158508691","0.238095"
"2158508691","2602934762","0.0714286"
"2602934762","2158508691","0.0714286"
"2158508691","2611953330","0.571429"
"2611953330","2158508691","0.571429"
"2158508691","2793264686","1.7381"
"2793264686","2158508691","1.7381"
"2158508691","2796434639","0.404762"
"2796434639","2158508691","0.404762"
"2158508691","2889405695","0.571429"
"2889405695","2158508691","0.571429"
"2158508691","2913848260","1.40476"
"2913848260","2158508691","1.40476"
"2158508691","2940809232","0.238095"
"2940809232","2158508691","0.238095"
"2253404081","2346581999","0.0714286"
"2346581999","2253404081","0.0714286"
"2253404081","2534333377","0.571429"
"2534333377","2253404081","0.571429"
"2253404081","2534452010","0.0714286"
"2534452010","2253404081","0.0714286"
"2253404081","2537162365","0.0714286"
"2537162365","2253404081","0.0714286"
"2253404081","2602934762","0.0714286"
"2602934762","2253404081","0.0714286"
"2253404081","2611953330","0.904762"
"2611953330","2253404081","0.904762"
"2253404081","2793264686","0.0714286"
"2793264686","2253404081","0.0714286"
"2253404081","2796434639","0.0714286"
"2796434639","2253404081","0.0714286"
"2253404081","2889405695","0.0714286"
"2889405695","2253404081","0.0714286"
"2253404081","2913848260","1.07143"
"2913848260","2253404081","1.07143"
"2253404081","2940809232","0.0714286"
"2940809232","2253404081","0.0714286"
"2346581999","2534333377","0.0714286"
"2534333377","2346581999","0.0714286"
"2346581999","2534452010","0.271429"
"2534452010","2346581999","0.271429"
"2346581999","2537162365","0.0714286"
"2537162365","2346581999","0.0714286"
"2346581999","2602934762","0.521429"
"2602934762","2346581999","0.521429"
"2346581999","2611953330","0.521429"
"2611953330","2346581999","0.521429"
"2346581999","2793264686","0.0714286"
"2793264686","2346581999","0.0714286"
"2346581999","2796434639","0.271429"
"2796434639","2346581999","0.271429"
"2346581999","2889405695","0.0714286"
"2889405695","2346581999","0.0714286"
"2346581999","2913848260","0.521429"
"2913848260","2346581999","0.521429"
"2346581999","2940809232","0.0714286"
"2940809232","2346581999","0.0714286"
"2534333377","2534452010","0.0714286"
"2534452010","2534333377","0.0714286"
"2534333377","2537162365","0.0714286"
"2537162365","2534333377","0.0714286"
"2534333377","2602934762","0.0714286"
"2602934762","2534333377","0.0714286"
"2534333377","2611953330","6.7381"
"2611953330","2534333377","6.7381"
"2534333377","2793264686","0.0714286"
"2793264686","2534333377","0.0714286"
"2534333377","2796434639","0.0714286"
"2796434639","2534333377","0.0714286"
"2534333377","2889405695","0.0714286"
"2889405695","2534333377","0.0714286"
"2534333377","2913848260","0.0714286"
"2913848260","2534333377","0.0714286"
"2534333377","2940809232","0.0714286"
"2940809232","2534333377","0.0714286"
"2534452010","2537162365","0.238095"
"2537162365","2534452010","0.238095"
"2534452010","2602934762","0.271429"
"2602934762","2534452010","0.271429"
"2534452010","2611953330","0.604762"
"2611953330","2534452010","0.604762"
"2534452010","2793264686","0.525397"
"2793264686","2534452010","0.525397"
"2534452010","2796434639","0.604762"
"2796434639","2534452010","0.604762"
"2534452010","2889405695","0.325397"
"2889405695","2534452010","0.325397"
"2534452010","2913848260","1.47143"
"2913848260","2534452010","1.47143"
"2534452010","2940809232","0.214286"
"2940809232","2534452010","0.214286"
"2537162365","2602934762","0.0714286"
"2602934762","2537162365","0.0714286"
"2537162365","2611953330","0.0714286"
"2611953330","2537162365","0.0714286"
"2537162365","2793264686","0.0714286"
"2793264686","2537162365","0.0714286"
"2537162365","2796434639","0.0714286"
"2796434639","2537162365","0.0714286"
"2537162365","2889405695","0.0714286"
"2889405695","2537162365","0.0714286"
"2537162365","2913848260","1.2381"
"2913848260","2537162365","1.2381"
"2537162365","2940809232","0.0714286"
"2940809232","2537162365","0.0714286"
"2602934762","2611953330","1.52143"
"2611953330","2602934762","1.52143"
"2602934762","2793264686","0.0714286"
"2793264686","2602934762","0.0714286"
"2602934762","2796434639","0.271429"
"2796434639","2602934762","0.271429"
"2602934762","2889405695","0.0714286"
"2889405695","2602934762","0.0714286"
"2602934762","2913848260","0.521429"
"2913848260","2602934762","0.521429"
"2602934762","2940809232","0.0714286"
"2940809232","2602934762","0.0714286"
"2611953330","2793264686","1.57143"
"2793264686","2611953330","1.57143"
"2611953330","2796434639","1.60476"
"2796434639","2611953330","1.60476"
"2611953330","2889405695","0.0714286"
"2889405695","2611953330","0.0714286"
"2611953330","2913848260","0.521429"
"2913848260","2611953330","0.521429"
"2611953330","2940809232","0.0714286"
"2940809232","2611953330","0.0714286"
"2793264686","2796434639","0.571429"
"2796434639","2793264686","0.571429"
"2793264686","2889405695","2.88651"
"2889405695","2793264686","2.88651"
"2793264686","2913848260","0.271429"
"2913848260","2793264686","0.271429"
"2793264686","2940809232","1.38095"
"2940809232","2793264686","1.38095"
"2796434639","2889405695","0.571429"
"2889405695","2796434639","0.571429"
"2796434639","2913848260","0.271429"
"2913848260","2796434639","0.271429"
"2796434639","2940809232","0.0714286"
"2940809232","2796434639","0.0714286"
"2889405695","2913848260","1.40476"
"2913848260","2889405695","1.40476"
"2889405695","2940809232","6.88095"
"2940809232","2889405695","6.88095"
"2913848260","2940809232","0.0714286"
"2940809232","2913848260","0.0714286"
"1558881891","2230344084","2"
"2230344084","1558881891","2"
"1558881891","3022307797","0.5"
"3022307797","1558881891","0.5"
"2602934762","3022307797","0.5"
"3022307797","2602934762","0.5"
"1573559659","1697827404","0.0833333"
"1697827404","1573559659","0.0833333"
"1573559659","1805437595","1.25"
"1805437595","1573559659","1.25"
"1573559659","1877220956","0.25"
"1877220956","1573559659","0.25"
"1573559659","1968114112","1.25"
"1968114112","1573559659","1.25"
"1573559659","2019575603","0.0833333"
"2019575603","1573559659","0.0833333"
"1573559659","2053965530","0.25"
"2053965530","1573559659","0.25"
"1573559659","2057728405","1.25"
"2057728405","1573559659","1.25"
"1573559659","2071201575","0.25"
"2071201575","1573559659","0.25"
"1573559659","2097159626","0.0833333"
"2097159626","1573559659","0.0833333"
"1573559659","2131433770","0.0833333"
"2131433770","1573559659","0.0833333"
"1573559659","2136388275","0.0833333"
"2136388275","1573559659","0.0833333"
"1573559659","2593144968","0.0833333"
"2593144968","1573559659","0.0833333"
"1697827404","1805437595","0.0833333"
"1805437595","1697827404","0.0833333"
"1697827404","1968114112","0.0833333"
"1968114112","1697827404","0.0833333"
"1697827404","2071201575","0.333333"
"2071201575","1697827404","0.333333"
"1697827404","2097159626","0.0833333"
"2097159626","1697827404","0.0833333"
"1697827404","2136388275","0.333333"
"2136388275","1697827404","0.333333"
"1805437595","1877220956","0.392857"
"1877220956","1805437595","0.392857"
"1805437595","1968114112","0.25"
"1968114112","1805437595","0.25"
"1805437595","2019575603","0.22619"
"2019575603","1805437595","0.22619"
"1805437595","2053965530","0.642857"
"2053965530","1805437595","0.642857"
"1805437595","2057728405","0.642857"
"2057728405","1805437595","0.642857"
"1805437595","2071201575","0.25"
"2071201575","1805437595","0.25"
"1805437595","2097159626","9.55952"
"2097159626","1805437595","9.55952"
"1805437595","2131433770","0.0833333"
"2131433770","1805437595","0.0833333"
"1805437595","2136388275","4"
"2136388275","1805437595","4"
"1805437595","2593144968","10.5"
"2593144968","1805437595","10.5"
"1877220956","1968114112","0.5"
"1968114112","1877220956","0.5"
"1877220956","2071201575","1.08333"
"2071201575","1877220956","1.08333"
"1877220956","2097159626","0.22619"
"2097159626","1877220956","0.22619"
"1877220956","2136388275","0.333333"
"2136388275","1877220956","0.333333"
"1968114112","2019575603","0.0833333"
"2019575603","1968114112","0.0833333"
"1968114112","2053965530","0.25"
"2053965530","1968114112","0.25"
"1968114112","2057728405","2"
"2057728405","1968114112","2"
"1968114112","2097159626","0.0833333"
"2097159626","1968114112","0.0833333"
"1968114112","2131433770","0.0833333"
"2131433770","1968114112","0.0833333"
"1968114112","2136388275","0.0833333"
"2136388275","1968114112","0.0833333"
"1968114112","2593144968","0.0833333"
"2593144968","1968114112","0.0833333"
"2019575603","2071201575","0.0833333"
"2071201575","2019575603","0.0833333"
"2019575603","2097159626","0.22619"
"2097159626","2019575603","0.22619"
"2019575603","2136388275","0.0833333"
"2136388275","2019575603","0.0833333"
"2019575603","2593144968","0.0833333"
"2593144968","2019575603","0.0833333"
"2053965530","2071201575","0.833333"
"2071201575","2053965530","0.833333"
"2053965530","2097159626","0.47619"
"2097159626","2053965530","0.47619"
"2053965530","2136388275","0.0833333"
"2136388275","2053965530","0.0833333"
"2053965530","2593144968","0.333333"
"2593144968","2053965530","0.333333"
"2057728405","2071201575","2"
"2071201575","2057728405","2"
"2057728405","2097159626","0.47619"
"2097159626","2057728405","0.47619"
"2057728405","2136388275","0.0833333"
"2136388275","2057728405","0.0833333"
"2071201575","2097159626","0.0833333"
"2097159626","2071201575","0.0833333"
"2071201575","2131433770","0.666667"
"2131433770","2071201575","0.666667"
"2071201575","2136388275","0.0833333"
"2136388275","2071201575","0.0833333"
"2071201575","2593144968","1.08333"
"2593144968","2071201575","1.08333"
"2097159626","2131433770","0.0833333"
"2131433770","2097159626","0.0833333"
"2097159626","2136388275","0.666667"
"2136388275","2097159626","0.666667"
"2097159626","2593144968","2.66667"
"2593144968","2097159626","2.66667"
"2131433770","2136388275","0.333333"
"2136388275","2131433770","0.333333"
"2136388275","2593144968","2.75"
"2593144968","2136388275","2.75"
"1602250655","2579507913","1"
"2579507913","1602250655","1"
"1602250655","2009341740","0.333333"
"2009341740","1602250655","0.333333"
"1602250655","2114580082","0.333333"
"2114580082","1602250655","0.333333"
"1602250655","2124145156","0.333333"
"2124145156","1602250655","0.333333"
"2009341740","2114580082","1.33333"
"2114580082","2009341740","1.33333"
"2009341740","2124145156","0.333333"
"2124145156","2009341740","0.333333"
"2114580082","2124145156","0.333333"
"2124145156","2114580082","0.333333"
"1603774346","1868343849","0.5"
"1868343849","1603774346","0.5"
"1603774346","2010224306","0.5"
"2010224306","1603774346","0.5"
"1868343849","2010224306","0.5"
"2010224306","1868343849","0.5"
"1697827404","1868343849","1"
"1868343849","1697827404","1"
"1697827404","2135273364","1"
"2135273364","1697827404","1"
"1697827404","2605881017","1"
"2605881017","1697827404","1"
"2136388275","2159456281","0.25"
"2159456281","2136388275","0.25"
"1697827404","1900605662","0.333333"
"1900605662","1697827404","0.333333"
"1697827404","2909946298","0.333333"
"2909946298","1697827404","0.333333"
"1900605662","2909946298","2.33333"
"2909946298","1900605662","2.33333"
"2168854766","2909946298","0.333333"
"2909946298","2168854766","0.333333"
"1805437595","1972359875","0.392857"
"1972359875","1805437595","0.392857"
"1805437595","2011741072","0.142857"
"2011741072","1805437595","0.142857"
"2011741072","2053965530","0.142857"
"2053965530","2011741072","0.142857"
"2011741072","2097159626","0.142857"
"2097159626","2011741072","0.142857"
"1805437595","2168854766","0.25"
"2168854766","1805437595","0.25"
"1972359875","2136388275","0.25"
"2136388275","1972359875","0.25"
"2136388275","2168854766","0.25"
"2168854766","2136388275","0.25"
"1805437595","2129763427","0.333333"
"2129763427","1805437595","0.333333"
"2129763427","2136388275","0.333333"
"2136388275","2129763427","0.333333"
"2129763427","2593144968","0.333333"
"2593144968","2129763427","0.333333"
"1808466474","2038350468","1"
"2038350468","1808466474","1"
"1855230611","2010224306","0.5"
"2010224306","1855230611","0.5"
"1855230611","2760791623","0.5"
"2760791623","1855230611","0.5"
"2010224306","2760791623","0.5"
"2760791623","2010224306","0.5"
"1868343849","2019575603","1"
"2019575603","1868343849","1"
"1877220956","1988730366","0.25"
"1988730366","1877220956","0.25"
"1968114112","1988730366","0.583333"
"1988730366","1968114112","0.583333"
"1988730366","2057728405","0.25"
"2057728405","1988730366","0.25"
"1988730366","2071201575","3.58333"
"2071201575","1988730366","3.58333"
"1877220956","1900605662","0.25"
"1900605662","1877220956","0.25"
"1900605662","2053965530","0.5"
"2053965530","1900605662","0.5"
"1900605662","2057728405","0.25"
"2057728405","1900605662","0.25"
"1877220956","2077688598","0.5"
"2077688598","1877220956","0.5"
"2053965530","2077688598","0.5"
"2077688598","2053965530","0.5"
"1900605662","1972359875","1.25"
"1972359875","1900605662","1.25"
"1900605662","2131433770","0.25"
"2131433770","1900605662","0.25"
"1900605662","2159456281","0.25"
"2159456281","1900605662","0.25"
"1900605662","2009341740","1"
"2009341740","1900605662","1"
"1900605662","2534452010","1"
"2534452010","1900605662","1"
"1900605662","2102848110","1"
"2102848110","1900605662","1"
"1961634645","2760791623","1"
"2760791623","1961634645","1"
"1961634645","2537162365","1"
"2537162365","1961634645","1"
"1961634645","2014137027","0.333333"
"2014137027","1961634645","0.333333"
"1961634645","2102848110","0.333333"
"2102848110","1961634645","0.333333"
"1961634645","2253404081","0.333333"
"2253404081","1961634645","0.333333"
"2014137027","2102848110","1.09444"
"2102848110","2014137027","1.09444"
"2014137027","2253404081","7.98333"
"2253404081","2014137027","7.98333"
"2102848110","2253404081","2.76905"
"2253404081","2102848110","2.76905"
"1961634645","2534452010","1"
"2534452010","1961634645","1"
"1968114112","2040168713","0.833333"
"2040168713","1968114112","0.833333"
"1968114112","2179890237","0.333333"
"2179890237","1968114112","0.333333"
"1968114112","2605881017","2.83333"
"2605881017","1968114112","2.83333"
"2040168713","2179890237","1.33333"
"2179890237","2040168713","1.33333"
"2040168713","2605881017","5.33333"
"2605881017","2040168713","5.33333"
"2179890237","2605881017","1.36905"
"2605881017","2179890237","1.36905"
"1968114112","2010196462","0.333333"
"2010196462","1968114112","0.333333"
"1988730366","2010196462","2.83333"
"2010196462","1988730366","2.83333"
"2010196462","2071201575","0.833333"
"2071201575","2010196462","0.833333"
"1968114112","2520883028","1"
"2520883028","1968114112","1"
"1968114112","2102848110","2"
"2102848110","1968114112","2"
"1968114112","2003535228","1"
"2003535228","1968114112","1"
"1969664386","2121947731","0.2"
"2121947731","1969664386","0.2"
"2011741072","2121947731","0.2"
"2121947731","2011741072","0.2"
"2062499875","2121947731","0.2"
"2121947731","2062499875","0.2"
"2077688598","2121947731","0.2"
"2121947731","2077688598","0.2"
"1969961850","2599582262","1"
"2599582262","1969961850","1"
"1972359875","2014137027","0.333333"
"2014137027","1972359875","0.333333"
"1972359875","2534452010","0.333333"
"2534452010","1972359875","0.333333"
"2014137027","2159456281","0.333333"
"2159456281","2014137027","0.333333"
"2014137027","2534452010","0.333333"
"2534452010","2014137027","0.333333"
"2159456281","2534452010","0.333333"
"2534452010","2159456281","0.333333"
"1972359875","1986738380","1.83333"
"1986738380","1972359875","1.83333"
"1986738380","2011741072","0.333333"
"2011741072","1986738380","0.333333"
"1986738380","2062499875","0.833333"
"2062499875","1986738380","0.833333"
"2077688598","2159456281","0.333333"
"2159456281","2077688598","0.333333"
"1972359875","2078287774","1"
"2078287774","1972359875","1"
"1979924955","2961365500","1"
"2961365500","1979924955","1"
"1980388712","2016027835","0.5"
"2016027835","1980388712","0.5"
"1980388712","2761680260","0.5"
"2761680260","1980388712","0.5"
"2016027835","2761680260","0.5"
"2761680260","2016027835","0.5"
"1980388712","2123917150","0.166667"
"2123917150","1980388712","0.166667"
"1980388712","2168568775","0.166667"
"2168568775","1980388712","0.166667"
"2123917150","2158508691","3.83333"
"2158508691","2123917150","3.83333"
"2123917150","2168568775","0.166667"
"2168568775","2123917150","0.166667"
"2123917150","2534452010","0.366667"
"2534452010","2123917150","0.366667"
"2123917150","2537162365","0.166667"
"2537162365","2123917150","0.166667"
"2123917150","2913848260","0.366667"
"2913848260","2123917150","0.366667"
"2158508691","2168568775","0.166667"
"2168568775","2158508691","0.166667"
"2168568775","2534452010","0.166667"
"2534452010","2168568775","0.166667"
"2168568775","2537162365","0.166667"
"2537162365","2168568775","0.166667"
"2168568775","2913848260","0.166667"
"2913848260","2168568775","0.166667"
"1986738380","2123917150","1"
"2123917150","1986738380","1"
"1986738380","2143272542","1"
"2143272542","1986738380","1"
"1988730366","2124145156","2"
"2124145156","1988730366","2"
"1988730366","2040168713","0.5"
"2040168713","1988730366","0.5"
"2040168713","2071201575","1.5"
"2071201575","2040168713","1.5"
"2010196462","2124145156","1"
"2124145156","2010196462","1"
"1989717902","2295643294","22.5"
"2295643294","1989717902","22.5"
"1989717902","2760774909","0.5"
"2760774909","1989717902","0.5"
"2295643294","2760774909","0.5"
"2760774909","2295643294","0.5"
"1989717902","2078287774","1"
"2078287774","1989717902","1"
"2078287774","2295643294","1"
"2295643294","2078287774","1"
"2003535228","2346581999","0.333333"
"2346581999","2003535228","0.333333"
"2003535228","2520883028","1.33333"
"2520883028","2003535228","1.33333"
"2003535228","2605881017","0.833333"
"2605881017","2003535228","0.833333"
"2346581999","2520883028","0.333333"
"2520883028","2346581999","0.333333"
"2346581999","2605881017","0.583333"
"2605881017","2346581999","0.583333"
"2520883028","2605881017","5.14444"
"2605881017","2520883028","5.14444"
"2003535228","2102848110","0.5"
"2102848110","2003535228","0.5"
"2102848110","2520883028","0.611111"
"2520883028","2102848110","0.611111"
"2003535228","2015521515","1"
"2015521515","2003535228","1"
"2006246616","2014137027","4.65"
"2014137027","2006246616","4.65"
"2006246616","2016027835","3.56667"
"2016027835","2006246616","3.56667"
"2014137027","2016027835","5.73333"
"2016027835","2014137027","5.73333"
"2006246616","2102848110","0.65"
"2102848110","2006246616","0.65"
"2006246616","2253404081","1.15"
"2253404081","2006246616","1.15"
"2006246616","2605881017","0.616667"
"2605881017","2006246616","0.616667"
"2014137027","2605881017","1.81111"
"2605881017","2014137027","1.81111"
"2016027835","2102848110","0.542857"
"2102848110","2016027835","0.542857"
"2016027835","2253404081","3.20952"
"2253404081","2016027835","3.20952"
"2016027835","2605881017","0.842857"
"2605881017","2016027835","0.842857"
"2102848110","2605881017","0.957937"
"2605881017","2102848110","0.957937"
"2253404081","2605881017","2.23571"
"2605881017","2253404081","2.23571"
"2006246616","2171560124","0.333333"
"2171560124","2006246616","0.333333"
"2014137027","2171560124","2.27778"
"2171560124","2014137027","2.27778"
"2171560124","2253404081","0.97619"
"2253404081","2171560124","0.97619"
"2006246616","2120323927","0.5"
"2120323927","2006246616","0.5"
"2014137027","2120323927","0.5"
"2120323927","2014137027","0.5"
"2006246616","2123917150","0.166667"
"2123917150","2006246616","0.166667"
"2006246616","2778036648","0.166667"
"2778036648","2006246616","0.166667"
"2014137027","2123917150","0.416667"
"2123917150","2014137027","0.416667"
"2014137027","2778036648","1.94444"
"2778036648","2014137027","1.94444"
"2016027835","2123917150","0.166667"
"2123917150","2016027835","0.166667"
"2016027835","2778036648","0.833333"
"2778036648","2016027835","0.833333"
"2123917150","2253404081","0.75"
"2253404081","2123917150","0.75"
"2123917150","2605881017","0.166667"
"2605881017","2123917150","0.166667"
"2123917150","2778036648","0.75"
"2778036648","2123917150","0.75"
"2253404081","2778036648","6.39286"
"2778036648","2253404081","6.39286"
"2605881017","2778036648","0.920635"
"2778036648","2605881017","0.920635"
"2006246616","2909946298","0.2"
"2909946298","2006246616","0.2"
"2014137027","2909946298","1.31111"
"2909946298","2014137027","1.31111"
"2016027835","2909946298","0.342857"
"2909946298","2016027835","0.342857"
"2102848110","2909946298","1.59683"
"2909946298","2102848110","1.59683"
"2253404081","2909946298","0.485714"
"2909946298","2253404081","0.485714"
"2006422400","2168854766","1"
"2168854766","2006422400","1"
"2006422400","2760791623","1"
"2760791623","2006422400","1"
"2006422400","2011741072","0.5"
"2011741072","2006422400","0.5"
"2010107579","2011741072","1"
"2011741072","2010107579","1"
"2010107579","2031163946","0.5"
"2031163946","2010107579","0.5"
"2010107579","2793264686","0.5"
"2793264686","2010107579","0.5"
"2031163946","2793264686","0.5"
"2793264686","2031163946","0.5"
"2014137027","2765878711","1.94444"
"2765878711","2014137027","1.94444"
"2253404081","2765878711","1.55952"
"2765878711","2253404081","1.55952"
"2765878711","2778036648","6.67063"
"2778036648","2765878711","6.67063"
"2014137027","2793264686","0.111111"
"2793264686","2014137027","0.111111"
"2014137027","2889405695","0.444444"
"2889405695","2014137027","0.444444"
"2014137027","2979739534","0.444444"
"2979739534","2014137027","0.444444"
"2102848110","2171560124","1.25397"
"2171560124","2102848110","1.25397"
"2102848110","2765878711","0.253968"
"2765878711","2102848110","0.253968"
"2102848110","2778036648","1.75397"
"2778036648","2102848110","1.75397"
"2102848110","2793264686","0.722222"
"2793264686","2102848110","0.722222"
"2102848110","2889405695","0.222222"
"2889405695","2102848110","0.222222"
"2102848110","2979739534","0.222222"
"2979739534","2102848110","0.222222"
"2171560124","2605881017","0.253968"
"2605881017","2171560124","0.253968"
"2171560124","2765878711","0.111111"
"2765878711","2171560124","0.111111"
"2171560124","2778036648","0.111111"
"2778036648","2171560124","0.111111"
"2171560124","2793264686","0.111111"
"2793264686","2171560124","0.111111"
"2171560124","2889405695","0.444444"
"2889405695","2171560124","0.444444"
"2171560124","2909946298","0.253968"
"2909946298","2171560124","0.253968"
"2171560124","2979739534","0.444444"
"2979739534","2171560124","0.444444"
"2605881017","2765878711","1.00397"
"2765878711","2605881017","1.00397"
"2605881017","2793264686","0.672222"
"2793264686","2605881017","0.672222"
"2605881017","2889405695","1.17222"
"2889405695","2605881017","1.17222"
"2605881017","2909946298","0.396825"
"2909946298","2605881017","0.396825"
"2605881017","2979739534","0.672222"
"2979739534","2605881017","0.672222"
"2765878711","2793264686","0.503968"
"2793264686","2765878711","0.503968"
"2765878711","2889405695","0.503968"
"2889405695","2765878711","0.503968"
"2765878711","2909946298","0.253968"
"2909946298","2765878711","0.253968"
"2765878711","2979739534","0.503968"
"2979739534","2765878711","0.503968"
"2778036648","2793264686","0.111111"
"2793264686","2778036648","0.111111"
"2778036648","2889405695","0.111111"
"2889405695","2778036648","0.111111"
"2778036648","2909946298","0.253968"
"2909946298","2778036648","0.253968"
"2778036648","2979739534","0.111111"
"2979739534","2778036648","0.111111"
"2793264686","2909946298","0.111111"
"2909946298","2793264686","0.111111"
"2793264686","2979739534","0.981746"
"2979739534","2793264686","0.981746"
"2889405695","2909946298","0.111111"
"2909946298","2889405695","0.111111"
"2889405695","2979739534","5.31508"
"2979739534","2889405695","5.31508"
"2909946298","2979739534","0.111111"
"2979739534","2909946298","0.111111"
"2123917150","2765878711","0.25"
"2765878711","2123917150","0.25"
"2015521515","2520883028","1"
"2520883028","2015521515","1"
"2015521515","2057728405","1"
"2057728405","2015521515","1"
"2015521515","2610822426","1"
"2610822426","2015521515","1"
"2016027835","2760774909","3"
"2760774909","2016027835","3"
"2016027835","2168568775","0.142857"
"2168568775","2016027835","0.142857"
"2016027835","2171560124","1.14286"
"2171560124","2016027835","1.14286"
"2016027835","2179890237","0.142857"
"2179890237","2016027835","0.142857"
"2102848110","2168568775","0.142857"
"2168568775","2102848110","0.142857"
"2102848110","2179890237","0.285714"
"2179890237","2102848110","0.285714"
"2168568775","2171560124","0.142857"
"2171560124","2168568775","0.142857"
"2168568775","2179890237","0.142857"
"2179890237","2168568775","0.142857"
"2168568775","2253404081","0.142857"
"2253404081","2168568775","0.142857"
"2168568775","2605881017","0.142857"
"2605881017","2168568775","0.142857"
"2168568775","2909946298","0.142857"
"2909946298","2168568775","0.142857"
"2171560124","2179890237","0.142857"
"2179890237","2171560124","0.142857"
"2179890237","2253404081","0.535714"
"2253404081","2179890237","0.535714"
"2179890237","2909946298","0.285714"
"2909946298","2179890237","0.285714"
"2016027835","2765878711","0.333333"
"2765878711","2016027835","0.333333"
"2019575603","2121947731","1.5"
"2121947731","2019575603","1.5"
"2031163946","2040168713","1"
"2040168713","2031163946","1"
"2034717219","2120323927","1.5"
"2120323927","2034717219","1.5"
"2038350468","2120323927","2.5"
"2120323927","2038350468","2.5"
"2034717219","2125413643","0.333333"
"2125413643","2034717219","0.333333"
"2038350468","2125413643","0.333333"
"2125413643","2038350468","0.333333"
"2125413643","2133060220","1.33333"
"2133060220","2125413643","1.33333"
"2034717219","2071201575","0.5"
"2071201575","2034717219","0.5"
"2038350468","2071201575","0.5"
"2071201575","2038350468","0.5"
"2038350468","2159792176","0.5"
"2159792176","2038350468","0.5"
"2040168713","2579507913","1"
"2579507913","2040168713","1"
"2040168713","2520883028","0.5"
"2520883028","2040168713","0.5"
"2053965530","2534333377","0.166667"
"2534333377","2053965530","0.166667"
"2053965530","2611953330","0.166667"
"2611953330","2053965530","0.166667"
"2057728405","2534333377","0.166667"
"2534333377","2057728405","0.166667"
"2057728405","2611953330","0.166667"
"2611953330","2057728405","0.166667"
"2057728405","2961365500","0.166667"
"2961365500","2057728405","0.166667"
"2131433770","2534333377","0.166667"
"2534333377","2131433770","0.166667"
"2131433770","2611953330","0.166667"
"2611953330","2131433770","0.166667"
"2168854766","2534333377","0.166667"
"2534333377","2168854766","0.166667"
"2168854766","2611953330","0.166667"
"2611953330","2168854766","0.166667"
"2534333377","2961365500","0.166667"
"2961365500","2534333377","0.166667"
"2611953330","2961365500","0.166667"
"2961365500","2611953330","0.166667"
"2062748597","2123917150","1.33333"
"2123917150","2062748597","1.33333"
"2062748597","2158508691","1.33333"
"2158508691","2062748597","1.33333"
"2062748597","2796434639","0.333333"
"2796434639","2062748597","0.333333"
"2123917150","2796434639","0.333333"
"2796434639","2123917150","0.333333"
"2062748597","2534452010","1"
"2534452010","2062748597","1"
"2073522142","2077688598","3"
"2077688598","2073522142","3"
"2077688598","2909946298","1"
"2909946298","2077688598","1"
"2078287774","2135273364","1"
"2135273364","2078287774","1"
"2078287774","2760774909","1"
"2760774909","2078287774","1"
"2168854766","2593144968","0.5"
"2593144968","2168854766","0.5"
"2101658431","2102848110","1.75397"
"2102848110","2101658431","1.75397"
"2101658431","2793264686","0.753968"
"2793264686","2101658431","0.753968"
"2101658431","2129763427","0.111111"
"2129763427","2101658431","0.111111"
"2101658431","2520883028","0.587302"
"2520883028","2101658431","0.587302"
"2101658431","2534452010","0.253968"
"2534452010","2101658431","0.253968"
"2101658431","2605881017","0.253968"
"2605881017","2101658431","0.253968"
"2101658431","2761680260","0.444444"
"2761680260","2101658431","0.444444"
"2101658431","2889405695","0.587302"
"2889405695","2101658431","0.587302"
"2101658431","2979739534","0.253968"
"2979739534","2101658431","0.253968"
"2102848110","2129763427","0.111111"
"2129763427","2102848110","0.111111"
"2102848110","2534452010","0.111111"
"2534452010","2102848110","0.111111"
"2102848110","2761680260","0.111111"
"2761680260","2102848110","0.111111"
"2129763427","2520883028","0.111111"
"2520883028","2129763427","0.111111"
"2129763427","2534452010","0.644444"
"2534452010","2129763427","0.644444"
"2129763427","2605881017","0.111111"
"2605881017","2129763427","0.111111"
"2129763427","2761680260","0.111111"
"2761680260","2129763427","0.111111"
"2129763427","2793264686","0.311111"
"2793264686","2129763427","0.311111"
"2129763427","2889405695","0.111111"
"2889405695","2129763427","0.111111"
"2129763427","2979739534","0.111111"
"2979739534","2129763427","0.111111"
"2520883028","2534452010","0.253968"
"2534452010","2520883028","0.253968"
"2520883028","2761680260","1.14444"
"2761680260","2520883028","1.14444"
"2520883028","2793264686","0.953968"
"2793264686","2520883028","0.953968"
"2520883028","2889405695","2.12064"
"2889405695","2520883028","2.12064"
"2520883028","2979739534","1.62063"
"2979739534","2520883028","1.62063"
"2534452010","2605881017","0.111111"
"2605881017","2534452010","0.111111"
"2534452010","2761680260","0.111111"
"2761680260","2534452010","0.111111"
"2534452010","2979739534","0.253968"
"2979739534","2534452010","0.253968"
"2605881017","2761680260","0.311111"
"2761680260","2605881017","0.311111"
"2761680260","2793264686","0.811111"
"2793264686","2761680260","0.811111"
"2761680260","2889405695","3.64444"
"2889405695","2761680260","3.64444"
"2761680260","2979739534","2.97778"
"2979739534","2761680260","2.97778"
"2101658431","2179890237","0.142857"
"2179890237","2101658431","0.142857"
"2101658431","2253404081","0.142857"
"2253404081","2101658431","0.142857"
"2101658431","2765878711","0.285714"
"2765878711","2101658431","0.285714"
"2101658431","2778036648","0.142857"
"2778036648","2101658431","0.142857"
"2101658431","2909946298","0.142857"
"2909946298","2101658431","0.142857"
"2179890237","2765878711","0.392857"
"2765878711","2179890237","0.392857"
"2179890237","2778036648","0.392857"
"2778036648","2179890237","0.392857"
"2101658431","2940809232","0.142857"
"2940809232","2101658431","0.142857"
"2520883028","2765878711","0.142857"
"2765878711","2520883028","0.142857"
"2520883028","2940809232","0.309524"
"2940809232","2520883028","0.309524"
"2534452010","2765878711","0.142857"
"2765878711","2534452010","0.142857"
"2765878711","2940809232","0.142857"
"2940809232","2765878711","0.142857"
"2940809232","2979739534","1.80952"
"2979739534","2940809232","1.80952"
"2102848110","3022307797","2"
"3022307797","2102848110","2"
"2102848110","2170121907","1"
"2170121907","2102848110","1"
"2118802962","2121947731","1"
"2121947731","2118802962","1"
"2121947731","2125413643","1"
"2125413643","2121947731","1"
"2123917150","2534333377","1"
"2534333377","2123917150","1"
"2123917150","2611953330","1.33333"
"2611953330","2123917150","1.33333"
"2611953330","2778036648","0.333333"
"2778036648","2611953330","0.333333"
"2123917150","2129763427","0.533333"
"2129763427","2123917150","0.533333"
"2123917150","3022307797","2.53333"
"3022307797","2123917150","2.53333"
"2129763427","2158508691","0.333333"
"2158508691","2129763427","0.333333"
"2129763427","3022307797","0.533333"
"3022307797","2129763427","0.533333"
"2158508691","3022307797","0.333333"
"3022307797","2158508691","0.333333"
"2123917150","2793264686","0.2"
"2793264686","2123917150","0.2"
"2129763427","2913848260","0.2"
"2913848260","2129763427","0.2"
"2534452010","3022307797","0.2"
"3022307797","2534452010","0.2"
"2793264686","3022307797","0.2"
"3022307797","2793264686","0.2"
"2913848260","3022307797","0.2"
"3022307797","2913848260","0.2"
"2123917150","2788272508","1"
"2788272508","2123917150","1"
"2125413643","2170121907","2"
"2170121907","2125413643","2"
"2125413643","2159792176","1"
"2159792176","2125413643","1"
"2129763427","2611953330","1.33333"
"2611953330","2129763427","1.33333"
"2129763427","2796434639","0.333333"
"2796434639","2129763427","0.333333"
"2143272542","2159792176","1"
"2159792176","2143272542","1"
"2143272542","2168854766","1"
"2168854766","2143272542","1"
"2158508691","2520883028","0.5"
"2520883028","2158508691","0.5"
"2158508691","2761680260","0.166667"
"2761680260","2158508691","0.166667"
"2158508691","2979739534","0.166667"
"2979739534","2158508691","0.166667"
"2761680260","2940809232","0.166667"
"2940809232","2761680260","0.166667"
"2520883028","2913848260","0.333333"
"2913848260","2520883028","0.333333"
"2168568775","3022307797","2"
"3022307797","2168568775","2"
"2168568775","2761680260","6"
"2761680260","2168568775","6"
"2168854766","2170121907","1"
"2170121907","2168854766","1"
"2179890237","2579507913","0.5"
"2579507913","2179890237","0.5"
"2579507913","2605881017","0.5"
"2605881017","2579507913","0.5"
"2253404081","2760774909","1"
"2760774909","2253404081","1"
"2602934762","2605881017","0.25"
"2605881017","2602934762","0.25"
"2605881017","2611953330","0.25"
"2611953330","2605881017","0.25"
"2605881017","2913848260","0.25"
"2913848260","2605881017","0.25"
"2537162365","2778036648","1"
"2778036648","2537162365","1"
"2602934762","2760791623","1"
"2760791623","2602934762","1"
"2760791623","2788272508","6"
"2788272508","2760791623","6"
"2602934762","2961365500","1"
"2961365500","2602934762","1"
"2605881017","2760791623","1"
"2760791623","2605881017","1"
"2611953330","3022307797","1"
"3022307797","2611953330","1"
"2760791623","2961365500","0.5"
"2961365500","2760791623","0.5"
"2760791623","2979739534","0.5"
"2979739534","2760791623","0.5"
"2961365500","2979739534","0.5"
"2979739534","2961365500","0.5"
"2760791623","2793264686","1"
"2793264686","2760791623","1"
"2778036648","2913848260","1"
"2913848260","2778036648","1"
"2788272508","3022307797","1"
"3022307797","2788272508","1"
"2788272508","2961365500","1"
"2961365500","2788272508","1"
"2788272508","2972470163","1"
"2972470163","2788272508","1"
