"1625258039","2008582547","0.249733"
"2008582547","1625258039","0.249733"
"1625258039","2011897039","0.249733"
"2011897039","1625258039","0.249733"
"1625258039","2022687548","0.1"
"2022687548","1625258039","0.1"
"1625258039","2061685310","0.249733"
"2061685310","1625258039","0.249733"
"1625258039","2081376643","0.158824"
"2081376643","1625258039","0.158824"
"1625258039","2151513180","0.249733"
"2151513180","1625258039","0.249733"
"1625258039","2157783791","0.158824"
"2157783791","1625258039","0.158824"
"1625258039","2166690251","0.249733"
"2166690251","1625258039","0.249733"
"1625258039","2565282135","0.249733"
"2565282135","1625258039","0.249733"
"1625258039","2807790133","0.249733"
"2807790133","1625258039","0.249733"
"2008582547","2011897039","1.24973"
"2011897039","2008582547","1.24973"
"2008582547","2022687548","0.85"
"2022687548","2008582547","0.85"
"2008582547","2061685310","0.916399"
"2061685310","2008582547","0.916399"
"2008582547","2081376643","2.07549"
"2081376643","2008582547","2.07549"
"2008582547","2151513180","1.74973"
"2151513180","2008582547","1.74973"
"2008582547","2157783791","6.07549"
"2157783791","2008582547","6.07549"
"2008582547","2166690251","1.9164"
"2166690251","2008582547","1.9164"
"2008582547","2565282135","0.249733"
"2565282135","2008582547","0.249733"
"2008582547","2807790133","1.24973"
"2807790133","2008582547","1.24973"
"2011897039","2022687548","0.266667"
"2022687548","2011897039","0.266667"
"2011897039","2061685310","1.08307"
"2061685310","2011897039","1.08307"
"2011897039","2081376643","0.658824"
"2081376643","2011897039","0.658824"
"2011897039","2151513180","2.58307"
"2151513180","2011897039","2.58307"
"2011897039","2157783791","0.658824"
"2157783791","2011897039","0.658824"
"2011897039","2166690251","1.74973"
"2166690251","2011897039","1.74973"
"2011897039","2565282135","0.416399"
"2565282135","2011897039","0.416399"
"2011897039","2807790133","0.416399"
"2807790133","2011897039","0.416399"
"2022687548","2061685310","0.266667"
"2061685310","2022687548","0.266667"
"2022687548","2081376643","0.85"
"2081376643","2022687548","0.85"
"2022687548","2151513180","0.1"
"2151513180","2022687548","0.1"
"2022687548","2157783791","0.85"
"2157783791","2022687548","0.85"
"2022687548","2166690251","0.766667"
"2166690251","2022687548","0.766667"
"2022687548","2565282135","0.1"
"2565282135","2022687548","0.1"
"2022687548","2807790133","0.1"
"2807790133","2022687548","0.1"
"2061685310","2081376643","0.32549"
"2081376643","2061685310","0.32549"
"2061685310","2151513180","1.0164"
"2151513180","2061685310","1.0164"
"2061685310","2157783791","0.32549"
"2157783791","2061685310","0.32549"
"2061685310","2166690251","2.18307"
"2166690251","2061685310","2.18307"
"2061685310","2565282135","0.683066"
"2565282135","2061685310","0.683066"
"2061685310","2807790133","0.349733"
"2807790133","2061685310","0.349733"
"2081376643","2151513180","0.158824"
"2151513180","2081376643","0.158824"
"2081376643","2157783791","2.07549"
"2157783791","2081376643","2.07549"
"2081376643","2166690251","0.32549"
"2166690251","2081376643","0.32549"
"2081376643","2565282135","0.158824"
"2565282135","2081376643","0.158824"
"2081376643","2807790133","0.158824"
"2807790133","2081376643","0.158824"
"2151513180","2157783791","0.158824"
"2157783791","2151513180","0.158824"
"2151513180","2166690251","0.683066"
"2166690251","2151513180","0.683066"
"2151513180","2565282135","0.516399"
"2565282135","2151513180","0.516399"
"2151513180","2807790133","1.5164"
"2807790133","2151513180","1.5164"
"2157783791","2166690251","1.32549"
"2166690251","2157783791","1.32549"
"2157783791","2565282135","0.158824"
"2565282135","2157783791","0.158824"
"2157783791","2807790133","1.15882"
"2807790133","2157783791","1.15882"
"2166690251","2565282135","0.516399"
"2565282135","2166690251","0.516399"
"2166690251","2807790133","0.516399"
"2807790133","2166690251","0.516399"
"2565282135","2807790133","2.04973"
"2807790133","2565282135","2.04973"
"1625258039","2091544219","0.0588235"
"2091544219","1625258039","0.0588235"
"1625258039","2596369432","0.0588235"
"2596369432","1625258039","0.0588235"
"1625258039","2599404354","0.149733"
"2599404354","1625258039","0.149733"
"1625258039","2708787519","0.0588235"
"2708787519","1625258039","0.0588235"
"1625258039","2760152215","0.0588235"
"2760152215","1625258039","0.0588235"
"1625258039","2773187952","0.0588235"
"2773187952","1625258039","0.0588235"
"1625258039","2773296755","0.149733"
"2773296755","1625258039","0.149733"
"1625258039","2913042876","0.0588235"
"2913042876","1625258039","0.0588235"
"2008582547","2091544219","0.0588235"
"2091544219","2008582547","0.0588235"
"2008582547","2596369432","1.05882"
"2596369432","2008582547","1.05882"
"2008582547","2599404354","0.149733"
"2599404354","2008582547","0.149733"
"2008582547","2708787519","0.0588235"
"2708787519","2008582547","0.0588235"
"2008582547","2760152215","0.0588235"
"2760152215","2008582547","0.0588235"
"2008582547","2773187952","0.0588235"
"2773187952","2008582547","0.0588235"
"2008582547","2773296755","0.149733"
"2773296755","2008582547","0.149733"
"2008582547","2913042876","0.0588235"
"2913042876","2008582547","0.0588235"
"2011897039","2091544219","0.0588235"
"2091544219","2011897039","0.0588235"
"2011897039","2596369432","0.0588235"
"2596369432","2011897039","0.0588235"
"2011897039","2599404354","0.483066"
"2599404354","2011897039","0.483066"
"2011897039","2708787519","0.0588235"
"2708787519","2011897039","0.0588235"
"2011897039","2760152215","0.0588235"
"2760152215","2011897039","0.0588235"
"2011897039","2773187952","0.0588235"
"2773187952","2011897039","0.0588235"
"2011897039","2773296755","0.149733"
"2773296755","2011897039","0.149733"
"2011897039","2913042876","0.22549"
"2913042876","2011897039","0.22549"
"2061685310","2091544219","0.158824"
"2091544219","2061685310","0.158824"
"2061685310","2596369432","0.0588235"
"2596369432","2061685310","0.0588235"
"2061685310","2599404354","1.4164"
"2599404354","2061685310","1.4164"
"2061685310","2708787519","0.0588235"
"2708787519","2061685310","0.0588235"
"2061685310","2760152215","0.492157"
"2760152215","2061685310","0.492157"
"2061685310","2773187952","0.0588235"
"2773187952","2061685310","0.0588235"
"2061685310","2773296755","0.249733"
"2773296755","2061685310","0.249733"
"2061685310","2913042876","0.32549"
"2913042876","2061685310","0.32549"
"2081376643","2091544219","0.0588235"
"2091544219","2081376643","0.0588235"
"2081376643","2596369432","0.0588235"
"2596369432","2081376643","0.0588235"
"2081376643","2599404354","0.0588235"
"2599404354","2081376643","0.0588235"
"2081376643","2708787519","0.0588235"
"2708787519","2081376643","0.0588235"
"2081376643","2760152215","0.0588235"
"2760152215","2081376643","0.0588235"
"2081376643","2773187952","0.0588235"
"2773187952","2081376643","0.0588235"
"2081376643","2773296755","0.0588235"
"2773296755","2081376643","0.0588235"
"2081376643","2913042876","0.0588235"
"2913042876","2081376643","0.0588235"
"2091544219","2151513180","0.158824"
"2151513180","2091544219","0.158824"
"2091544219","2157783791","0.0588235"
"2157783791","2091544219","0.0588235"
"2091544219","2166690251","0.158824"
"2166690251","2091544219","0.158824"
"2091544219","2565282135","0.408824"
"2565282135","2091544219","0.408824"
"2091544219","2596369432","0.0588235"
"2596369432","2091544219","0.0588235"
"2091544219","2599404354","0.742157"
"2599404354","2091544219","0.742157"
"2091544219","2708787519","0.0588235"
"2708787519","2091544219","0.0588235"
"2091544219","2760152215","0.158824"
"2760152215","2091544219","0.158824"
"2091544219","2773187952","0.0588235"
"2773187952","2091544219","0.0588235"
"2091544219","2773296755","0.492157"
"2773296755","2091544219","0.492157"
"2091544219","2807790133","0.158824"
"2807790133","2091544219","0.158824"
"2091544219","2913042876","0.492157"
"2913042876","2091544219","0.492157"
"2151513180","2596369432","1.05882"
"2596369432","2151513180","1.05882"
"2151513180","2599404354","0.583066"
"2599404354","2151513180","0.583066"
"2151513180","2708787519","0.0588235"
"2708787519","2151513180","0.0588235"
"2151513180","2760152215","1.15882"
"2760152215","2151513180","1.15882"
"2151513180","2773187952","1.05882"
"2773187952","2151513180","1.05882"
"2151513180","2773296755","0.249733"
"2773296755","2151513180","0.249733"
"2151513180","2913042876","0.32549"
"2913042876","2151513180","0.32549"
"2157783791","2596369432","0.0588235"
"2596369432","2157783791","0.0588235"
"2157783791","2599404354","0.0588235"
"2599404354","2157783791","0.0588235"
"2157783791","2708787519","0.0588235"
"2708787519","2157783791","0.0588235"
"2157783791","2760152215","0.0588235"
"2760152215","2157783791","0.0588235"
"2157783791","2773187952","0.0588235"
"2773187952","2157783791","0.0588235"
"2157783791","2773296755","0.0588235"
"2773296755","2157783791","0.0588235"
"2157783791","2913042876","0.0588235"
"2913042876","2157783791","0.0588235"
"2166690251","2596369432","0.0588235"
"2596369432","2166690251","0.0588235"
"2166690251","2599404354","0.583066"
"2599404354","2166690251","0.583066"
"2166690251","2708787519","0.0588235"
"2708787519","2166690251","0.0588235"
"2166690251","2760152215","0.158824"
"2760152215","2166690251","0.158824"
"2166690251","2773187952","0.0588235"
"2773187952","2166690251","0.0588235"
"2166690251","2773296755","0.249733"
"2773296755","2166690251","0.249733"
"2166690251","2913042876","0.32549"
"2913042876","2166690251","0.32549"
"2565282135","2596369432","0.0588235"
"2596369432","2565282135","0.0588235"
"2565282135","2599404354","0.866399"
"2599404354","2565282135","0.866399"
"2565282135","2708787519","0.0588235"
"2708787519","2565282135","0.0588235"
"2565282135","2760152215","0.492157"
"2760152215","2565282135","0.492157"
"2565282135","2773187952","0.0588235"
"2773187952","2565282135","0.0588235"
"2565282135","2773296755","0.949733"
"2773296755","2565282135","0.949733"
"2565282135","2913042876","0.992157"
"2913042876","2565282135","0.992157"
"2596369432","2599404354","0.0588235"
"2599404354","2596369432","0.0588235"
"2596369432","2708787519","0.0588235"
"2708787519","2596369432","0.0588235"
"2596369432","2760152215","3.30882"
"2760152215","2596369432","3.30882"
"2596369432","2773187952","0.308824"
"2773187952","2596369432","0.308824"
"2596369432","2773296755","0.0588235"
"2773296755","2596369432","0.0588235"
"2596369432","2807790133","0.0588235"
"2807790133","2596369432","0.0588235"
"2596369432","2913042876","0.0588235"
"2913042876","2596369432","0.0588235"
"2599404354","2708787519","0.201681"
"2708787519","2599404354","0.201681"
"2599404354","2760152215","0.492157"
"2760152215","2599404354","0.492157"
"2599404354","2773187952","0.535014"
"2773187952","2599404354","0.535014"
"2599404354","2773296755","3.25926"
"2773296755","2599404354","3.25926"
"2599404354","2807790133","2.59259"
"2807790133","2599404354","2.59259"
"2599404354","2913042876","1.80168"
"2913042876","2599404354","1.80168"
"2708787519","2760152215","0.0588235"
"2760152215","2708787519","0.0588235"
"2708787519","2773187952","0.201681"
"2773187952","2708787519","0.201681"
"2708787519","2773296755","0.201681"
"2773296755","2708787519","0.201681"
"2708787519","2807790133","0.201681"
"2807790133","2708787519","0.201681"
"2708787519","2913042876","0.201681"
"2913042876","2708787519","0.201681"
"2760152215","2773187952","3.97549"
"2773187952","2760152215","3.97549"
"2760152215","2773296755","2.15882"
"2773296755","2760152215","2.15882"
"2760152215","2807790133","0.492157"
"2807790133","2760152215","0.492157"
"2760152215","2913042876","0.158824"
"2913042876","2760152215","0.158824"
"2773187952","2773296755","0.701681"
"2773296755","2773187952","0.701681"
"2773187952","2807790133","2.03501"
"2807790133","2773187952","2.03501"
"2773187952","2913042876","0.201681"
"2913042876","2773187952","0.201681"
"2773296755","2807790133","1.59259"
"2807790133","2773296755","1.59259"
"2773296755","2913042876","1.13501"
"2913042876","2773296755","1.13501"
"2807790133","2913042876","4.13501"
"2913042876","2807790133","4.13501"
"1625258039","2063459233","0.0909091"
"2063459233","1625258039","0.0909091"
"1625258039","2908346042","0.0909091"
"2908346042","1625258039","0.0909091"
"2008582547","2063459233","0.424242"
"2063459233","2008582547","0.424242"
"2008582547","2908346042","0.340909"
"2908346042","2008582547","0.340909"
"2011897039","2063459233","0.257576"
"2063459233","2011897039","0.257576"
"2011897039","2908346042","0.0909091"
"2908346042","2011897039","0.0909091"
"2061685310","2063459233","0.0909091"
"2063459233","2061685310","0.0909091"
"2061685310","2908346042","0.0909091"
"2908346042","2061685310","0.0909091"
"2063459233","2151513180","0.257576"
"2151513180","2063459233","0.257576"
"2063459233","2166690251","0.257576"
"2166690251","2063459233","0.257576"
"2063459233","2565282135","0.507576"
"2565282135","2063459233","0.507576"
"2063459233","2599404354","0.507576"
"2599404354","2063459233","0.507576"
"2063459233","2773296755","0.0909091"
"2773296755","2063459233","0.0909091"
"2063459233","2807790133","0.257576"
"2807790133","2063459233","0.257576"
"2063459233","2908346042","0.0909091"
"2908346042","2063459233","0.0909091"
"2151513180","2908346042","0.0909091"
"2908346042","2151513180","0.0909091"
"2166690251","2908346042","0.0909091"
"2908346042","2166690251","0.0909091"
"2565282135","2908346042","0.0909091"
"2908346042","2565282135","0.0909091"
"2599404354","2908346042","0.0909091"
"2908346042","2599404354","0.0909091"
"2773296755","2908346042","0.0909091"
"2908346042","2773296755","0.0909091"
"2807790133","2908346042","0.0909091"
"2908346042","2807790133","0.0909091"
"1634568388","2599404354","1.2"
"2599404354","1634568388","1.2"
"1634568388","2471243040","0.2"
"2471243040","1634568388","0.2"
"1634568388","2565282135","0.2"
"2565282135","1634568388","0.2"
"1634568388","2773296755","0.2"
"2773296755","1634568388","0.2"
"1634568388","2807790133","0.2"
"2807790133","1634568388","0.2"
"2471243040","2565282135","0.2"
"2565282135","2471243040","0.2"
"2471243040","2599404354","0.2"
"2599404354","2471243040","0.2"
"2471243040","2773296755","0.2"
"2773296755","2471243040","0.2"
"2471243040","2807790133","0.2"
"2807790133","2471243040","0.2"
"1946062231","2163730112","1"
"2163730112","1946062231","1"
"1946062231","2109299986","1"
"2109299986","1946062231","1"
"1946062231","2166106571","1"
"2166106571","1946062231","1"
"2022687548","2908346042","0.25"
"2908346042","2022687548","0.25"
"2081376643","2908346042","0.25"
"2908346042","2081376643","0.25"
"2157783791","2908346042","0.25"
"2908346042","2157783791","0.25"
"2063459233","2081376643","0.333333"
"2081376643","2063459233","0.333333"
"2063459233","2157783791","0.333333"
"2157783791","2063459233","0.333333"
"2011897039","2084598790","0.166667"
"2084598790","2011897039","0.166667"
"2061685310","2084598790","0.166667"
"2084598790","2061685310","0.166667"
"2084598790","2151513180","0.166667"
"2151513180","2084598790","0.166667"
"2084598790","2166690251","0.166667"
"2166690251","2084598790","0.166667"
"2084598790","2599404354","0.166667"
"2599404354","2084598790","0.166667"
"2084598790","2913042876","0.166667"
"2913042876","2084598790","0.166667"
"2022687548","2471243040","0.5"
"2471243040","2022687548","0.5"
"2166690251","2471243040","5.5"
"2471243040","2166690251","5.5"
"2061685310","2546939225","0.1"
"2546939225","2061685310","0.1"
"2091544219","2546939225","0.1"
"2546939225","2091544219","0.1"
"2151513180","2546939225","0.1"
"2546939225","2151513180","0.1"
"2166690251","2546939225","0.1"
"2546939225","2166690251","0.1"
"2546939225","2565282135","0.1"
"2565282135","2546939225","0.1"
"2546939225","2599404354","0.433333"
"2599404354","2546939225","0.433333"
"2546939225","2760152215","0.1"
"2760152215","2546939225","0.1"
"2546939225","2773296755","2.26667"
"2773296755","2546939225","2.26667"
"2546939225","2807790133","0.1"
"2807790133","2546939225","0.1"
"2546939225","2913042876","0.1"
"2913042876","2546939225","0.1"
"2061685310","2596561671","0.333333"
"2596561671","2061685310","0.333333"
"2565282135","2596561671","0.333333"
"2596561671","2565282135","0.333333"
"2596561671","2760152215","1.91667"
"2760152215","2596561671","1.91667"
"2063459233","2091544219","4.25"
"2091544219","2063459233","4.25"
"2063459233","2998815819","0.25"
"2998815819","2063459233","0.25"
"2091544219","2998815819","0.25"
"2998815819","2091544219","0.25"
"2565282135","2998815819","1.58333"
"2998815819","2565282135","1.58333"
"2599404354","2998815819","0.75"
"2998815819","2599404354","0.75"
"2084598790","2596369432","1.25"
"2596369432","2084598790","1.25"
"2084598790","2596561671","1.08333"
"2596561671","2084598790","1.08333"
"2084598790","2760152215","4.08333"
"2760152215","2084598790","4.08333"
"2084598790","2773187952","0.583333"
"2773187952","2084598790","0.583333"
"2596369432","2596561671","0.25"
"2596561671","2596369432","0.25"
"2596561671","2773187952","0.583333"
"2773187952","2596561671","0.583333"
"2151513180","2596561671","0.5"
"2596561671","2151513180","0.5"
"2151513180","2168904211","1"
"2168904211","2151513180","1"
"2151513180","2987753796","0.5"
"2987753796","2151513180","0.5"
"2760152215","2987753796","0.5"
"2987753796","2760152215","0.5"
"2157783791","2168904211","1"
"2168904211","2157783791","1"
"2163461704","2163730112","3"
"2163730112","2163461704","3"
"2163730112","2168904211","1"
"2168904211","2163730112","1"
"2168904211","2170711609","3"
"2170711609","2168904211","3"
"2546939225","2987753796","2.83333"
"2987753796","2546939225","2.83333"
"2773296755","2987753796","4.97619"
"2987753796","2773296755","4.97619"
"2546939225","2971651069","0.666667"
"2971651069","2546939225","0.666667"
"2773296755","2971651069","2.30952"
"2971651069","2773296755","2.30952"
"2971651069","2987753796","0.97619"
"2987753796","2971651069","0.97619"
"2599404354","2971651069","0.47619"
"2971651069","2599404354","0.47619"
"2807790133","2998815819","0.333333"
"2998815819","2807790133","0.333333"
"2913042876","2998815819","2.83333"
"2998815819","2913042876","2.83333"
"2599404354","2987753796","1.14286"
"2987753796","2599404354","1.14286"
"2708787519","2971651069","0.142857"
"2971651069","2708787519","0.142857"
"2708787519","2987753796","0.142857"
"2987753796","2708787519","0.142857"
"2773187952","2971651069","0.142857"
"2971651069","2773187952","0.142857"
"2773187952","2987753796","0.142857"
"2987753796","2773187952","0.142857"
"2807790133","2971651069","1.14286"
"2971651069","2807790133","1.14286"
"2807790133","2987753796","0.642857"
"2987753796","2807790133","0.642857"
"2913042876","2971651069","0.642857"
"2971651069","2913042876","0.642857"
"2913042876","2987753796","0.142857"
"2987753796","2913042876","0.142857"
"2908346042","2913042876","0.5"
"2913042876","2908346042","0.5"
"2908346042","2971651069","0.5"
"2971651069","2908346042","0.5"
"2971651069","2998815819","1"
"2998815819","2971651069","1"
