"1033896572","1965759957","7"
"1965759957","1033896572","7"
"1033896572","2537446292","1"
"2537446292","1033896572","1"
"1033896572","2505747953","1"
"2505747953","1033896572","1"
"1547094341","193222607","0.458766"
"193222607","1547094341","0.458766"
"1547094341","1974759005","0.190909"
"1974759005","1547094341","0.190909"
"1547094341","2009002350","0.708766"
"2009002350","1547094341","0.708766"
"1547094341","2017057753","1.95877"
"2017057753","1547094341","1.95877"
"1547094341","2044487619","0.333766"
"2044487619","1547094341","0.333766"
"1547094341","2086583931","1.71591"
"2086583931","1547094341","1.71591"
"1547094341","2121957969","0.340909"
"2121957969","1547094341","0.340909"
"1547094341","2138994413","0.190909"
"2138994413","1547094341","0.190909"
"1547094341","2302017845","0.0909091"
"2302017845","1547094341","0.0909091"
"1547094341","2329685206","0.215909"
"2329685206","1547094341","0.215909"
"1547094341","2505747953","0.358766"
"2505747953","1547094341","0.358766"
"193222607","1974759005","0.190909"
"1974759005","193222607","0.190909"
"193222607","2009002350","0.625433"
"2009002350","193222607","0.625433"
"193222607","2017057753","1.12543"
"2017057753","193222607","1.12543"
"193222607","2044487619","0.500433"
"2044487619","193222607","0.500433"
"193222607","2086583931","0.215909"
"2086583931","193222607","0.215909"
"193222607","2121957969","0.0909091"
"2121957969","193222607","0.0909091"
"193222607","2138994413","0.357576"
"2138994413","193222607","0.357576"
"193222607","2302017845","0.0909091"
"2302017845","193222607","0.0909091"
"193222607","2329685206","0.215909"
"2329685206","193222607","0.215909"
"193222607","2505747953","0.358766"
"2505747953","193222607","0.358766"
"1974759005","2009002350","0.190909"
"2009002350","1974759005","0.190909"
"1974759005","2017057753","0.190909"
"2017057753","1974759005","0.190909"
"1974759005","2044487619","0.190909"
"2044487619","1974759005","0.190909"
"1974759005","2086583931","0.0909091"
"2086583931","1974759005","0.0909091"
"1974759005","2121957969","0.340909"
"2121957969","1974759005","0.340909"
"1974759005","2138994413","1.52424"
"2138994413","1974759005","1.52424"
"1974759005","2302017845","0.0909091"
"2302017845","1974759005","0.0909091"
"1974759005","2329685206","0.0909091"
"2329685206","1974759005","0.0909091"
"1974759005","2505747953","0.0909091"
"2505747953","1974759005","0.0909091"
"2009002350","2017057753","0.625433"
"2017057753","2009002350","0.625433"
"2009002350","2044487619","3.83377"
"2044487619","2009002350","3.83377"
"2009002350","2086583931","0.215909"
"2086583931","2009002350","0.215909"
"2009002350","2121957969","0.340909"
"2121957969","2009002350","0.340909"
"2009002350","2138994413","0.357576"
"2138994413","2009002350","0.357576"
"2009002350","2302017845","0.0909091"
"2302017845","2009002350","0.0909091"
"2009002350","2329685206","3.54924"
"2329685206","2009002350","3.54924"
"2009002350","2505747953","1.85877"
"2505747953","2009002350","1.85877"
"2017057753","2044487619","0.333766"
"2044487619","2017057753","0.333766"
"2017057753","2086583931","2.21591"
"2086583931","2017057753","2.21591"
"2017057753","2121957969","0.0909091"
"2121957969","2017057753","0.0909091"
"2017057753","2138994413","0.357576"
"2138994413","2017057753","0.357576"
"2017057753","2302017845","0.0909091"
"2302017845","2017057753","0.0909091"
"2017057753","2329685206","1.04924"
"2329685206","2017057753","1.04924"
"2017057753","2505747953","0.6921"
"2505747953","2017057753","0.6921"
"2044487619","2086583931","0.0909091"
"2086583931","2044487619","0.0909091"
"2044487619","2121957969","0.0909091"
"2121957969","2044487619","0.0909091"
"2044487619","2138994413","0.190909"
"2138994413","2044487619","0.190909"
"2044487619","2302017845","0.0909091"
"2302017845","2044487619","0.0909091"
"2044487619","2329685206","0.590909"
"2329685206","2044487619","0.590909"
"2044487619","2505747953","1.73377"
"2505747953","2044487619","1.73377"
"2086583931","2121957969","0.0909091"
"2121957969","2086583931","0.0909091"
"2086583931","2138994413","0.0909091"
"2138994413","2086583931","0.0909091"
"2086583931","2302017845","0.0909091"
"2302017845","2086583931","0.0909091"
"2086583931","2329685206","0.715909"
"2329685206","2086583931","0.715909"
"2086583931","2505747953","0.215909"
"2505747953","2086583931","0.215909"
"2121957969","2138994413","1.09091"
"2138994413","2121957969","1.09091"
"2121957969","2302017845","0.590909"
"2302017845","2121957969","0.590909"
"2121957969","2329685206","0.0909091"
"2329685206","2121957969","0.0909091"
"2121957969","2505747953","0.0909091"
"2505747953","2121957969","0.0909091"
"2138994413","2302017845","0.0909091"
"2302017845","2138994413","0.0909091"
"2138994413","2329685206","0.0909091"
"2329685206","2138994413","0.0909091"
"2138994413","2505747953","0.0909091"
"2505747953","2138994413","0.0909091"
"2302017845","2329685206","0.0909091"
"2329685206","2302017845","0.0909091"
"2302017845","2505747953","0.0909091"
"2505747953","2302017845","0.0909091"
"2329685206","2505747953","1.88258"
"2505747953","2329685206","1.88258"
"1547094341","1985200891","0.617857"
"1985200891","1547094341","0.617857"
"1547094341","2123040233","0.25"
"2123040233","1547094341","0.25"
"1985200891","2009002350","5.95119"
"2009002350","1985200891","5.95119"
"1985200891","2121957969","0.25"
"2121957969","1985200891","0.25"
"1985200891","2123040233","0.25"
"2123040233","1985200891","0.25"
"2009002350","2123040233","0.25"
"2123040233","2009002350","0.25"
"2121957969","2123040233","0.25"
"2123040233","2121957969","0.25"
"1547094341","2956387240","0.142857"
"2956387240","1547094341","0.142857"
"193222607","1985200891","0.70119"
"1985200891","193222607","0.70119"
"193222607","2956387240","0.142857"
"2956387240","193222607","0.142857"
"1985200891","2017057753","0.534524"
"2017057753","1985200891","0.534524"
"1985200891","2044487619","6.24286"
"2044487619","1985200891","6.24286"
"1985200891","2505747953","2.60119"
"2505747953","1985200891","2.60119"
"1985200891","2956387240","0.142857"
"2956387240","1985200891","0.142857"
"2009002350","2956387240","0.142857"
"2956387240","2009002350","0.142857"
"2017057753","2956387240","0.142857"
"2956387240","2017057753","0.142857"
"2044487619","2956387240","0.142857"
"2956387240","2044487619","0.142857"
"2505747953","2956387240","0.142857"
"2956387240","2505747953","0.142857"
"1547094341","1966544963","0.1"
"1966544963","1547094341","0.1"
"1547094341","2168810197","0.225"
"2168810197","1547094341","0.225"
"1547094341","2973839058","0.1"
"2973839058","1547094341","0.1"
"193222607","1966544963","0.766667"
"1966544963","193222607","0.766667"
"193222607","2168810197","0.391667"
"2168810197","193222607","0.391667"
"193222607","2973839058","0.1"
"2973839058","193222607","0.1"
"1966544963","1974759005","1.68333"
"1974759005","1966544963","1.68333"
"1966544963","1985200891","0.85"
"1985200891","1966544963","0.85"
"1966544963","2009002350","0.1"
"2009002350","1966544963","0.1"
"1966544963","2017057753","0.6"
"2017057753","1966544963","0.6"
"1966544963","2044487619","0.266667"
"2044487619","1966544963","0.266667"
"1966544963","2138994413","1.43333"
"2138994413","1966544963","1.43333"
"1966544963","2168810197","7.68333"
"2168810197","1966544963","7.68333"
"1966544963","2973839058","0.1"
"2973839058","1966544963","0.1"
"1974759005","1985200891","0.1"
"1985200891","1974759005","0.1"
"1974759005","2168810197","2.68333"
"2168810197","1974759005","2.68333"
"1974759005","2973839058","0.1"
"2973839058","1974759005","0.1"
"1985200891","2138994413","0.266667"
"2138994413","1985200891","0.266667"
"1985200891","2168810197","0.725"
"2168810197","1985200891","0.725"
"1985200891","2973839058","0.1"
"2973839058","1985200891","0.1"
"2009002350","2168810197","0.725"
"2168810197","2009002350","0.725"
"2009002350","2973839058","0.1"
"2973839058","2009002350","0.1"
"2017057753","2168810197","0.391667"
"2168810197","2017057753","0.391667"
"2017057753","2973839058","0.1"
"2973839058","2017057753","0.1"
"2044487619","2168810197","0.433333"
"2168810197","2044487619","0.433333"
"2044487619","2973839058","1.1"
"2973839058","2044487619","1.1"
"2138994413","2168810197","0.6"
"2168810197","2138994413","0.6"
"2138994413","2973839058","0.1"
"2973839058","2138994413","0.1"
"2168810197","2973839058","0.1"
"2973839058","2168810197","0.1"
"1985200891","2086583931","0.125"
"2086583931","1985200891","0.125"
"1985200891","2329685206","0.958333"
"2329685206","1985200891","0.958333"
"2086583931","2168810197","0.125"
"2168810197","2086583931","0.125"
"2168810197","2329685206","0.125"
"2329685206","2168810197","0.125"
"2168810197","2505747953","0.125"
"2505747953","2168810197","0.125"
"181683368","2306035349","48.5"
"2306035349","181683368","48.5"
"181683368","2973839058","0.5"
"2973839058","181683368","0.5"
"2306035349","2973839058","0.5"
"2973839058","2306035349","0.5"
"193222607","2002986561","0.166667"
"2002986561","193222607","0.166667"
"193222607","2077330901","0.166667"
"2077330901","193222607","0.166667"
"193222607","2085812989","0.166667"
"2085812989","193222607","0.166667"
"1966544963","2002986561","0.75"
"2002986561","1966544963","0.75"
"1966544963","2077330901","1.91667"
"2077330901","1966544963","1.91667"
"1966544963","2085812989","2.25"
"2085812989","1966544963","2.25"
"1985200891","2002986561","0.75"
"2002986561","1985200891","0.75"
"1985200891","2077330901","0.75"
"2077330901","1985200891","0.75"
"1985200891","2085812989","0.75"
"2085812989","1985200891","0.75"
"2002986561","2044487619","0.166667"
"2044487619","2002986561","0.166667"
"2002986561","2077330901","0.416667"
"2077330901","2002986561","0.416667"
"2002986561","2085812989","2.75"
"2085812989","2002986561","2.75"
"2044487619","2077330901","1.5"
"2077330901","2044487619","1.5"
"2044487619","2085812989","0.166667"
"2085812989","2044487619","0.166667"
"2077330901","2085812989","0.916667"
"2085812989","2077330901","0.916667"
"193222607","2162178936","0.166667"
"2162178936","193222607","0.166667"
"1985200891","2162178936","0.166667"
"2162178936","1985200891","0.166667"
"2009002350","2162178936","0.166667"
"2162178936","2009002350","0.166667"
"2017057753","2162178936","0.166667"
"2162178936","2017057753","0.166667"
"2138994413","2162178936","0.166667"
"2162178936","2138994413","0.166667"
"2162178936","2168810197","0.416667"
"2168810197","2162178936","0.416667"
"1965759957","2505747953","0.333333"
"2505747953","1965759957","0.333333"
"1965759957","2537446292","1.33333"
"2537446292","1965759957","1.33333"
"1965759957","2810658935","1.33333"
"2810658935","1965759957","1.33333"
"2505747953","2537446292","0.833333"
"2537446292","2505747953","0.833333"
"2505747953","2810658935","0.833333"
"2810658935","2505747953","0.833333"
"2537446292","2810658935","1.83333"
"2810658935","2537446292","1.83333"
"1966544963","2121957969","3.25"
"2121957969","1966544963","3.25"
"1966544963","2162178936","0.25"
"2162178936","1966544963","0.25"
"1974759005","2162178936","0.25"
"2162178936","1974759005","0.25"
"2121957969","2162178936","0.25"
"2162178936","2121957969","0.25"
"2121957969","2168810197","1.25"
"2168810197","2121957969","1.25"
"1971640861","2008504510","4"
"2008504510","1971640861","4"
"2077330901","2505747953","0.333333"
"2505747953","2077330901","0.333333"
"1985200891","2123204287","0.833333"
"2123204287","1985200891","0.833333"
"2009002350","2123204287","0.833333"
"2123204287","2009002350","0.833333"
"1985200891","2044026227","0.333333"
"2044026227","1985200891","0.333333"
"2009002350","2044026227","0.333333"
"2044026227","2009002350","0.333333"
"2044026227","2123204287","0.333333"
"2123204287","2044026227","0.333333"
"1985862230","2545241570","2"
"2545241570","1985862230","2"
"1985862230","1987340722","2"
"1987340722","1985862230","2"
"1985862230","2077330901","1"
"2077330901","1985862230","1"
"1985862230","2052983425","1.5"
"2052983425","1985862230","1.5"
"1985862230","1992461263","0.5"
"1992461263","1985862230","0.5"
"1992461263","2052983425","0.5"
"2052983425","1992461263","0.5"
"2014757166","2545241570","1"
"2545241570","2014757166","1"
"2017057753","2044026227","0.333333"
"2044026227","2017057753","0.333333"
"2044026227","2329685206","0.333333"
"2329685206","2044026227","0.333333"
"2044026227","2505747953","0.333333"
"2505747953","2044026227","0.333333"
"2044026227","2123040233","0.5"
"2123040233","2044026227","0.5"
"2044026227","2302017845","0.5"
"2302017845","2044026227","0.5"
"2123040233","2302017845","0.5"
"2302017845","2123040233","0.5"
"2121957969","2306035349","0.5"
"2306035349","2121957969","0.5"
"2302017845","2306035349","0.5"
"2306035349","2302017845","0.5"
"2121957969","2973839058","1"
"2973839058","2121957969","1"
"2903666811","2957982467","4"
"2957982467","2903666811","4"
"2905353923","3000663678","1"
"3000663678","2905353923","1"
"2956387240","3000663678","1"
"3000663678","2956387240","1"
